timestamp,emg1,emg2,emg3,emg4,emg5,emg6,emg7,emg8
32912507588,0,-3,-8,-8,1,0,-1,0
32912507588,-3,-1,-1,-6,-1,-2,-3,-5
32912508397,3,-2,11,49,8,2,1,-1
32912508397,-1,-2,-4,-23,-4,0,0,-1
32912509299,0,2,-6,-5,-2,0,0,-2
32912509299,-2,-4,-6,1,-4,0,-1,0
32912510050,0,1,-4,-22,-3,-2,-1,-1
32912510050,-2,0,5,1,-1,-3,-1,1
32912515310,0,-3,-11,13,-1,0,0,0
32912515310,0,3,-1,-4,4,-1,0,1
32912529470,-1,-1,-4,-7,-4,-1,1,-2
32912529470,-1,-2,-2,-2,-1,-1,-1,1
32912535070,-2,-2,5,20,-2,-1,-1,-2
32912535070,0,-1,13,-18,-4,-2,0,-1
32912550832,-2,-1,-1,-6,4,-1,1,0
32912550832,0,2,-8,-5,-1,-1,0,-3
32912558755,-1,3,9,33,3,2,-2,-1
32912558755,0,-2,-4,-2,0,1,0,-1
32912573795,-2,0,5,-14,-3,-3,-3,0
32912573795,-2,-2,-11,30,-1,-1,-1,0
32912581545,0,0,-5,-20,-2,-2,-1,1
32912581545,-1,3,1,9,-7,-3,1,-1
32912594768,-1,-2,8,-16,-6,-1,-2,-1
32912594768,0,0,-10,29,3,0,0,-1
32912636536,0,-2,3,-8,-1,1,0,0
32912636536,-1,0,0,-6,-4,0,-1,-2
32912637401,-2,-1,-2,-8,-3,-2,-1,0
32912637401,0,0,-5,24,1,2,0,1
32912640499,0,2,8,1,0,0,-2,0
32912640499,0,-4,-31,-10,-4,-1,0,-1
32912641440,0,0,8,-2,0,0,0,-2
32912641440,-1,-2,7,-8,-1,-2,0,1
32912648124,-1,-3,-6,4,-3,-3,1,0
32912648124,-1,-1,8,-3,0,0,-1,1
32912654890,-1,2,-5,5,-4,0,-2,-1
32912654890,-2,-3,-4,-35,0,-1,0,-3
32912662468,1,4,13,73,13,2,2,0
32912662468,-2,-2,-14,-57,-3,-1,0,0
32912677455,-1,-1,24,37,0,-2,-3,-1
32912677455,-1,2,0,2,2,-1,-1,-3
32912685615,-1,0,2,-27,-5,-3,-2,-1
32912685615,-1,-1,6,19,2,1,1,-1
32912708771,-2,-2,-22,-11,-1,-2,0,1
32912708771,0,-2,1,-4,-11,0,0,-2
32912709478,0,0,-7,-19,-3,3,-2,0
32912709478,1,1,-10,32,4,0,0,-1
32912723109,-1,-1,8,-24,-3,-2,-1,-1
32912723109,-1,-2,2,22,-4,1,0,0
32912723752,-1,-3,-11,-15,-1,-1,-1,-4
32912723752,-1,0,6,-1,-1,0,-1,-1
32912746245,2,-1,-9,9,1,0,-2,-2
32912746245,0,1,-2,-23,-3,-3,-1,0
32912746967,0,-4,-5,6,5,-4,-1,-2
32912746967,-1,4,9,39,6,-2,0,0
32912768760,-2,0,-3,-32,-4,-1,1,-1
32912768760,-1,-2,15,28,1,1,1,0
32912769442,1,-3,-10,-24,-2,0,1,0
32912769442,0,0,-1,-1,-5,-2,-2,1
32912783086,2,0,15,-3,1,1,1,-2
32912783086,2,0,-11,-3,0,-1,-3,1
32912783769,-1,0,-1,-3,-5,-1,-3,-1
32912783769,1,-2,0,3,2,-2,-1,0
32912806273,-2,0,-1,2,1,0,-1,1
32912806273,-2,-2,16,-6,-6,-1,0,-1
32912806964,-1,0,0,17,6,0,0,-2
32912806964,0,-4,-16,-16,2,-1,0,1
32912828822,1,0,-4,16,3,-1,1,0
32912828822,-1,-2,-15,-7,0,-3,-1,0
32912829438,0,1,9,0,-5,-3,1,-1
32912829438,0,1,-5,-8,-6,-1,-1,-1
32912843133,0,-2,5,16,1,-1,1,-1
32912843133,-1,2,-21,-13,5,-2,-1,-2
32912843772,-1,-3,-14,-22,-14,-3,-1,-2
32912843772,-3,-3,8,-9,-2,2,3,1
32912866291,0,1,4,-9,5,1,0,1
32912866291,-1,1,16,17,-4,0,-2,-3
32912866920,1,0,2,8,-1,-1,-2,1
32912866920,-1,-1,3,0,-1,1,0,-1
32912888752,-3,-5,-18,-14,-3,-2,-2,0
32912888752,2,2,-6,15,9,4,0,1
32912889459,0,0,3,-23,-2,-1,-1,2
32912889459,0,2,6,9,-3,-3,-2,-2
32912902958,0,1,6,17,-6,0,-1,-2
32912902958,-2,-2,2,-10,9,-1,-2,1
32912903860,-2,-1,-2,1,1,2,-1,0
32912903860,-2,1,18,5,1,1,-1,-1
32912926276,-1,-2,-17,-7,0,-3,0,-3
32912926276,1,3,2,-8,-2,1,0,-1
32912926914,-1,-3,-6,30,-2,-3,0,1
32912926914,0,-2,13,2,-2,-1,-2,-1
32912948774,-2,-2,2,-31,-2,0,-2,1
32912948774,-1,-3,-1,23,-3,-2,1,2
32912949472,-1,3,2,-13,-1,-2,-1,-1
32912949472,-1,-2,-8,51,-1,0,-1,-1
32912963147,-1,1,6,-64,-5,0,-1,0
32912963147,-2,-3,-16,-14,-3,-2,0,-1
32912963771,0,1,7,15,-4,-2,-2,-3
32912963771,-2,-3,2,-6,-3,-2,-1,-1
32912993761,-2,-2,-15,20,1,-1,0,-3
32912993761,0,2,2,-11,-7,0,0,-2
32912994407,-1,-4,2,-16,-1,-1,-1,-1
32912994407,1,1,-14,27,1,-1,0,-1
32913008579,0,0,2,-46,-7,-1,0,2
32913008579,-2,-3,6,1,-1,-3,-1,0
32913009422,-1,-3,-2,5,0,-1,0,0
32913009422,2,1,4,-31,1,0,-1,1
32913023055,2,-1,-13,28,1,1,1,-1
32913023055,1,6,4,-20,-2,-2,-4,-2
32913023774,-3,-4,19,38,0,-3,-3,-3
32913023774,-1,0,5,-7,-2,-2,-2,2
32913046303,1,-3,0,-18,2,-1,-1,-1
32913046303,1,-1,-12,-5,-2,1,1,1
32913046949,-1,-1,-11,-7,4,2,0,0
32913046949,-1,-2,-21,-26,-1,0,-1,-4
32913068695,-2,-2,6,83,3,-1,-1,-1
32913068695,0,-1,1,-33,-4,1,0,1
32913069422,0,-1,-8,-21,-2,-2,2,1
32913069422,-1,2,11,9,-1,-1,0,0
32913082422,-3,1,-4,-3,-2,0,0,0
32913082422,-1,-2,-4,27,6,-1,0,0
32913090476,0,3,-11,-50,-3,0,0,0
32913090476,-2,1,10,5,-7,-3,-2,-3
32913106292,1,-2,-1,2,20,1,0,0
32913106292,0,0,-5,29,-5,0,-1,-1
32913106991,0,-1,11,-19,1,1,-1,0
32913106991,0,1,12,14,-2,0,0,0
32913128778,-1,2,2,2,-4,0,-1,1
32913128778,-1,-4,-2,5,-2,-1,-1,-1
32913129466,0,1,-3,1,0,0,0,0
32913129466,0,-1,0,-8,-1,-1,0,0
32913142432,-1,-2,3,13,-2,-2,-1,0
32913142432,1,1,-5,-13,0,0,1,-1
32913150620,-3,0,5,6,-2,-2,-2,-3
32913150620,-3,-6,-4,-4,3,-2,-2,-2
32913166289,-3,2,-6,12,-5,-3,-2,-2
32913166289,-2,-3,-8,-25,-3,-1,1,-1
32913166939,1,-1,-4,11,-1,1,-1,0
32913166939,0,0,-8,-7,-1,-1,0,0
32913188646,0,-1,-5,-12,-3,-2,0,-2
32913188646,1,2,8,10,5,0,1,-1
32913189496,-2,-1,18,-10,-7,-2,1,0
32913189496,0,0,-10,7,14,2,-1,-2
32913202463,0,-1,5,11,-2,-1,-2,-3
32913202463,-1,0,4,31,2,1,-3,0
32913211292,0,3,-6,-32,-1,-1,-1,1
32913211292,-1,-4,-4,-16,-3,-2,-1,0
32913226243,-1,0,1,-11,-3,-2,-1,-1
32913226243,-3,-5,-4,-4,-2,-2,0,-1
32913227719,1,0,-7,24,4,-1,-1,-2
32913227719,0,2,4,-10,-6,1,-1,-1
32913248829,1,-1,-12,8,-4,-1,0,2
32913248829,-3,-1,23,5,-1,-4,-2,0
32913250318,0,0,-13,6,1,-2,-1,-2
32913250318,0,3,1,0,-2,-1,0,0
32913271202,0,-3,3,5,0,2,0,0
32913271202,-1,-3,-2,-6,-3,-3,0,-1
32913272728,-2,0,-5,6,-1,0,0,0
32913272728,-2,-1,0,-8,0,2,-1,-1
32913286299,0,0,3,-10,-2,-1,-1,-1
32913286299,2,2,5,-34,4,-3,0,1
32913287791,0,-1,-21,31,-4,-1,1,2
32913287791,-1,-1,16,2,15,0,2,-1
32913308766,-1,-5,10,14,-8,-2,-2,-1
32913308766,0,0,12,-8,0,-1,-2,-1
32913310286,-2,-1,6,-5,-1,0,-2,-2
32913310286,2,0,-12,-18,-6,-2,-1,1
32913322501,0,1,-3,12,0,1,1,2
32913322501,-1,0,-6,9,-1,2,-1,-2
32913331286,-2,-3,3,-14,-5,0,-2,-2
32913331286,-1,-1,-4,21,-4,-2,-1,0
32913346131,-1,-1,14,-9,4,0,0,-2
32913346131,-1,-3,-35,-30,-3,1,-3,0
32913347743,-2,-1,11,24,2,-2,-1,-1
32913347743,-1,-1,-15,8,-2,-4,-2,-1
32913368743,0,-1,7,-14,-1,-3,-1,-1
32913368743,-1,-2,0,4,3,-2,0,-1
32913370300,1,-1,-19,10,2,-1,0,0
32913370300,-1,-4,19,-1,0,-2,1,0
32913382447,1,3,-2,-3,-1,-2,0,0
32913382447,1,0,3,5,0,0,0,0
32913391297,-1,-2,-4,6,4,-1,0,0
32913391297,-2,1,-11,-15,-10,-1,1,-2
32913406330,-1,-1,-26,-5,12,1,-1,0
32913406330,1,3,32,12,-1,0,0,-1
32913407761,-1,-1,-14,-20,0,-2,1,2
32913407761,-1,1,0,-7,3,0,-2,0
32913428712,-2,-2,5,0,-5,-1,-1,-2
32913428712,1,1,-14,-13,-6,1,1,-2
32913430283,2,1,3,30,9,3,0,0
32913430283,-1,-6,4,-25,-7,-3,-3,-3
32913442507,3,2,-2,0,0,0,1,1
32913442507,-1,-3,-11,15,0,0,-2,1
32913451311,1,3,18,-10,-5,0,-1,0
32913451311,-1,-5,-19,1,2,1,0,-1
32913466498,-1,-1,9,13,-3,-1,-1,-1
32913466498,-3,0,2,-10,1,-3,-1,-1
32913467847,-2,-1,4,-1,-1,-1,1,1
32913467847,0,1,-3,-15,-3,-4,-1,-2
32913488807,-2,-4,-4,-1,-1,-3,-1,0
32913488807,-1,0,7,0,-5,-2,-1,-2
32913490319,-2,0,-12,-13,-4,-1,-2,-2
32913490319,0,0,2,31,3,0,-1,-2
32913511309,-1,-2,-9,-12,-2,0,0,-1
32913511309,0,-2,1,8,0,1,1,1
32913512840,-1,-2,9,-10,-6,0,0,-2
32913512840,1,-2,-11,-3,-5,1,0,0
32913526249,-2,2,28,-5,2,-1,-3,-2
32913526249,-3,-1,-18,17,-2,0,0,-1
32913527784,0,0,1,-14,1,-1,-1,-3
32913527784,-1,-2,0,26,-1,2,2,2
32913548708,-1,2,-9,-21,-2,-2,-2,0
32913548708,0,-1,3,9,4,0,-1,-1
32913550315,-1,-3,-6,0,1,-3,-1,0
32913550315,1,1,9,-7,-2,0,-3,1
32913571140,-2,-3,-29,-16,-2,-2,-1,-1
32913571140,-2,-2,24,25,-6,0,0,1
32913572765,3,3,5,-10,14,1,1,1
32913572765,-2,0,3,-16,-1,-2,-1,-2
32913586178,1,0,4,28,-1,0,0,-1
32913586178,-1,-2,-9,-18,-3,-2,-1,-1
32913587748,0,0,-2,-11,-4,1,-1,0
32913587748,0,0,3,2,-1,-2,-1,-1
32913607307,2,0,-5,-5,1,-1,1,0
32913607307,-1,0,-9,-3,3,0,0,0
32913616275,-2,-3,4,15,1,-1,-2,-1
32913616275,-1,1,4,-6,-1,1,-2,1
32913631223,-2,-2,-25,1,-4,1,0,-1
32913631223,-3,-3,-10,-15,-1,1,1,0
32913632725,-1,-2,12,68,-1,-3,0,-3
32913632725,0,2,3,-59,-8,-2,-1,-1
32913653799,0,0,8,-14,1,-1,0,1
32913653799,1,-1,1,-17,-3,-1,-1,0
32913655329,-2,1,-10,1,-2,0,1,0
32913655329,-1,-2,-7,10,2,-1,1,-2
32913667360,-1,1,8,5,-1,-2,-3,-2
32913667360,-2,0,-6,3,0,-3,-1,0
32913676303,-2,-3,-3,-13,-4,-1,-1,-1
32913676303,-2,1,0,12,-4,0,-3,1
32913691272,0,-1,4,13,18,4,0,0
32913691272,0,3,-1,16,-1,0,-2,-1
32913692800,0,-3,4,4,-4,-3,-2,0
32913692800,1,0,-3,-37,-2,-2,1,-1
32913713802,0,-2,-6,4,-4,-1,1,-1
32913713802,1,-2,-1,-1,4,0,0,-1
32913715293,0,-1,-2,-8,-4,-2,1,-1
32913715293,-1,1,-6,19,4,0,1,1
32913727452,-1,0,19,5,-2,-2,-2,-1
32913727452,0,-1,-11,-10,6,0,-1,-1
32913736299,-2,0,2,-8,-5,-1,-3,0
32913736299,-1,-2,-11,-16,2,1,0,1
32913751304,-3,-1,3,3,-5,-1,-1,-1
32913751304,-2,2,9,46,-3,-2,-1,1
32913752823,0,-1,-8,-12,2,1,0,-1
32913752823,-1,-1,9,-5,-3,-2,0,0
32913773828,-1,-2,-7,-24,-3,-2,0,0
32913773828,2,0,-7,-25,-6,-1,1,0
32913775316,-1,-2,8,-5,-4,-1,-2,-1
32913775316,-2,0,-18,27,5,0,0,-1
32913787430,1,-1,-12,-8,-4,-2,0,-1
32913787430,-1,1,19,13,1,-1,-1,-1
32913796332,-1,-1,-34,-23,-5,-1,0,0
32913796332,-2,-3,8,10,2,1,-2,0
32913811290,-1,1,5,-5,-2,1,0,1
32913811290,-2,1,-5,34,0,-1,-3,-2
32913812833,-2,-1,10,-42,1,-1,-1,1
32913812833,0,0,-9,16,-3,-2,1,1
32913833807,-2,-3,-11,15,0,-1,-1,-2
32913833807,2,-1,15,3,-2,0,0,0
32913835314,-1,0,-2,-19,2,0,0,0
32913835314,-1,0,5,7,0,-1,0,0
32913847510,-1,1,7,-2,0,1,0,-1
32913847510,0,-2,-23,-12,-1,-2,-1,-2
32913856353,-2,-2,15,22,4,0,1,-2
32913856353,0,0,-1,11,0,-2,1,-2
32913871351,0,1,14,-9,0,0,-1,-2
32913871351,-1,-1,-9,-2,-1,2,0,-2
32913872838,0,0,-3,22,-7,2,0,-1
32913872838,-1,3,31,1,8,1,-1,-3
32913893752,-3,-3,-5,-40,-8,-3,-2,-1
32913893752,2,0,-4,-10,6,2,3,0
32913895278,-1,-1,1,16,-5,-2,-2,-3
32913895278,1,-3,-4,7,-2,-2,0,-2
32913907482,1,-1,6,29,4,2,0,1
32913907482,-2,0,-12,-20,-2,-1,-1,-2
32913916310,1,1,17,7,15,1,1,0
32913916310,-3,-3,-14,-17,-4,-1,-1,-1
32913931319,-1,1,3,31,-1,-1,-1,1
32913931319,-1,0,1,-36,-5,-2,-2,0
32913932747,0,1,-1,14,1,-3,0,1
32913932747,-1,0,-11,-18,-1,-2,-1,0
32913953834,0,2,12,-6,0,-3,2,0
32913953834,-1,-3,-8,13,6,2,-1,1
32913955334,0,-1,-3,2,1,-1,-3,0
32913955334,1,1,3,37,-2,1,-2,-1
32913967465,1,0,-9,-45,-3,2,0,-1
32913967465,-1,-2,-3,-1,-4,-2,0,-1
32913976326,-1,0,-13,-14,3,0,0,-1
32913976326,-1,-2,1,31,-3,-1,1,-2
32913991339,-1,-3,10,10,-2,0,-1,-1
32913991339,-2,-1,-13,-11,3,0,-2,-1
32913992816,0,-3,-4,-3,-6,-1,-2,-1
32913992816,-1,0,-16,-13,0,-2,-2,0
32914013664,0,-2,-2,10,-1,-4,0,-1
32914013664,-1,-3,16,-2,-2,-1,-1,0
32914015253,-3,-2,-8,-4,-2,0,1,-1
32914015253,-3,1,-2,-12,-2,0,0,-2
32914036236,0,0,1,20,5,-2,-2,-2
32914036236,-1,1,24,-5,-1,-1,0,1
32914037802,2,2,3,-15,-5,-3,0,1
32914037802,0,-4,-5,-18,-3,-2,0,0
32914051316,-1,-3,-2,10,3,-2,-2,-3
32914051316,-1,0,4,-22,-2,-2,-2,0
32914052813,0,0,-12,20,0,0,-2,-4
32914052813,-1,1,2,-30,-3,-1,-1,0
32914073827,0,-3,-19,-21,1,2,0,1
32914073827,-2,-2,5,46,3,-2,-2,-2
32914075343,-3,0,6,-8,-5,-3,-2,-1
32914075343,0,3,6,14,12,2,-1,-1
32914096309,-1,-3,-4,12,-1,2,1,0
32914096309,0,5,3,-27,-8,0,1,1
32914097814,-3,-8,-7,6,1,-1,-1,-3
32914097814,1,13,-21,-8,0,-1,0,-1
32914111411,-2,-24,8,-23,-4,-3,1,0
32914111411,0,-2,-4,18,1,1,-1,-2
32914112880,0,-5,4,0,-2,-3,-2,-1
32914112880,0,0,5,14,-2,-2,-2,-2
32914133833,1,10,3,72,2,0,2,0
32914133833,-4,-22,-45,-51,-6,-2,0,-4
32914135339,-3,17,31,-48,-4,-1,-1,1
32914135339,-9,-31,-20,-14,-1,2,2,-1
32914156265,-1,4,39,33,-3,-2,-2,0
32914156265,13,11,10,55,0,-5,-4,12
32914157783,8,-2,37,102,2,-3,-2,3
32914157783,-18,-14,-47,-89,-7,5,3,-36
32914170723,-59,14,-33,-1,9,5,-1,-5
32914170723,-88,7,74,-41,-3,-3,-5,-25
32914177407,58,-27,-15,21,1,4,4,34
32914177407,60,18,-53,-40,-8,2,2,-2
32914193789,1,5,1,72,-13,-10,-8,-31
32914193789,-23,14,2,59,10,2,2,2
32914195363,-8,0,-13,-87,4,4,4,22
32914195363,-91,-28,0,-57,-3,-5,-11,-36
32914216336,59,7,18,34,-12,-2,-3,8
32914216336,67,15,4,-18,5,2,2,3
32914217841,-84,5,-29,-80,-7,-4,0,-15
32914217841,15,-1,26,127,11,-4,-4,2
32914230657,66,-8,1,-128,1,-8,3,18
32914230657,-18,-10,-95,55,-5,11,-1,-3
32914237509,36,13,71,-30,-4,-2,2,23
32914237509,91,23,1,34,4,6,6,13
32914253878,-108,22,96,100,3,6,6,7
32914253878,42,-10,33,14,4,-3,1,0
32914255360,38,2,-26,-18,-3,-13,-1,-30
32914255360,-14,-1,19,111,4,8,12,24
32914276213,0,15,-4,-119,-32,-23,-11,12
32914276213,24,-34,-67,-114,-3,3,1,7
32914277799,-35,18,-53,2,12,9,8,-31
32914277799,90,5,81,85,15,-7,-10,-27
32914289874,-73,-21,-68,-120,0,11,14,21
32914289874,43,4,-35,76,-13,-11,-5,5
32914298873,-27,-2,51,-9,1,5,0,10
32914298873,-76,-5,7,-20,-1,-19,-26,12
32914313775,55,-8,-4,33,12,26,44,-3
32914313775,68,-17,15,-17,-6,2,0,-11
32914315324,-24,-5,38,127,6,2,-5,-2
32914315324,-42,-2,7,-106,-17,-6,4,12
32914336345,113,21,-23,93,12,-15,-28,2
32914336345,-97,-46,49,79,4,-2,-10,-26
32914337856,67,34,2,76,14,9,21,-29
32914337856,-64,-23,57,-101,-15,-1,-5,25
32914349908,-10,7,21,109,-1,-10,-22,-35
32914349908,31,10,-126,-77,5,8,14,26
32914358857,33,-7,-18,101,-2,-16,-19,41
32914358857,76,-2,-73,-110,-6,10,17,-34
32914381379,-49,28,101,45,11,17,3,55
32914381379,57,5,127,-62,-14,-2,-10,23
32914382891,-111,3,-93,30,24,11,15,-1
32914382891,127,27,44,-62,-20,-16,1,7
32914396376,-80,-37,-16,-97,18,22,22,-25
32914396376,-6,31,8,12,-1,-2,3,2
32914397865,-106,-71,-82,-29,9,1,-10,-27
32914397865,-14,26,52,27,-11,-8,27,-3
32914409987,54,-28,25,55,11,-26,-56,36
32914409987,-56,36,-13,100,4,-6,5,-4
32914418858,44,-32,68,-89,-13,3,-24,39
32914418858,-60,-4,71,90,0,1,11,-69
32914433944,79,-29,-43,27,-5,-24,-84,-27
32914433944,-69,-6,58,83,11,-3,27,-47
32914435376,67,-8,13,3,-34,-7,41,-3
32914435376,22,13,88,71,-1,-8,-28,5
32914456359,127,7,9,85,-2,9,4,84
32914456359,111,-32,-102,26,2,-10,76,56
32914457834,-87,69,38,-48,27,-13,-99,-1
32914457834,13,-22,52,-62,-3,53,70,70
32914469958,-14,49,-74,-28,-8,0,41,-51
32914469958,-35,-31,73,-10,10,6,-21,3
32914478859,119,63,-71,15,18,-3,-27,22
32914478859,-30,-44,-128,35,-7,-1,61,-9
32914493964,-56,14,64,-52,-3,21,4,-14
32914493964,-3,7,30,-99,-16,3,-22,4
32914495367,67,20,-7,-47,12,13,15,-32
32914495367,-22,32,4,45,16,-27,-41,15
32914516401,-31,-29,-113,13,-10,-5,29,-35
32914516401,-57,9,-24,-18,10,1,-8,-14
32914517841,-6,-21,30,-23,-21,-25,33,-17
32914517841,-16,-23,-83,31,5,1,-11,21
32914530030,-42,29,87,-120,-14,-7,8,-5
32914530030,0,-3,35,-78,-13,-4,-27,-12
32914538865,6,16,74,-88,-17,19,13,14
32914538865,-5,21,100,39,5,3,-36,8
32914553915,-104,10,83,-111,-11,4,-4,-18
32914553915,0,2,-57,77,17,-15,-42,-13
32914555391,-12,-25,-17,20,-6,-15,-42,-11
32914555391,-13,-5,-34,-53,-11,-7,-53,2
32914576209,-21,-16,-23,5,4,-18,-15,-22
32914576209,3,39,90,48,5,29,39,8
32914577812,-15,-31,-23,-16,-21,3,22,1
32914577812,11,25,-40,-35,11,3,28,5
32914589810,47,-27,-84,-84,7,-2,16,31
32914589810,-71,-4,-47,11,-11,4,27,9
32914598831,34,-8,26,-1,-3,5,4,3
32914598831,-17,10,23,-47,-7,-5,-2,-4
32914613726,-17,-4,-54,32,-4,0,7,-7
32914613726,23,-19,-45,-4,-11,-5,-3,-12
32914615252,-4,9,10,76,18,2,16,-8
32914615252,-18,-17,-17,25,10,0,-5,3
32914636182,14,-10,-31,12,-1,1,-2,-4
32914636182,14,5,28,33,5,-8,-19,-1
32914637803,-19,-13,3,22,-18,0,10,-3
32914637803,5,20,12,33,-7,0,-2,2
32914649772,14,-46,-5,0,9,7,9,-4
32914649772,12,5,-9,89,16,1,-4,2
32914658807,-21,-2,2,-100,-21,-1,14,0
32914658807,-6,1,-23,65,13,0,3,-10
32914673641,5,13,22,13,-4,8,71,-4
32914673641,2,-7,-15,-62,-10,5,105,-1
32914675294,3,-6,1,-75,-1,5,82,1
32914675294,7,-5,-35,-30,8,2,10,3
32914696238,5,5,0,29,1,-4,-29,1
32914696238,8,-9,-4,-128,-4,-4,-78,-3
32914697831,-11,0,-19,4,-3,-4,-63,-4
32914697831,-3,-2,-6,-8,0,7,-48,-1
32914709775,-5,-2,5,-67,6,2,-46,-1
32914709775,0,7,7,-23,-10,-11,-36,-5
32914718829,2,-4,-8,58,11,-10,-22,-4
32914718829,-5,-5,-1,-37,0,-12,-14,1
32914733179,-1,-9,-37,81,-6,-9,-9,0
32914733179,3,12,6,-30,0,-2,-12,1
32914739849,-2,-8,4,86,3,-2,-1,2
32914739849,-8,-12,-26,-14,-2,7,1,-2
32914756346,3,7,6,3,4,8,4,-1
32914756346,1,-1,-12,-15,-25,-4,-4,1
32914757957,-6,-5,-1,-23,24,5,-1,-1
32914757957,2,-5,27,48,1,-6,7,-2
32914769926,3,0,2,-52,-8,-5,3,-2
32914769926,-4,1,-2,24,4,-3,-7,-1
32914778843,-2,-4,-12,-34,-10,-1,1,0
32914778843,-1,-3,2,45,-1,-3,2,-3
32914793785,0,3,6,16,4,-3,1,-2
32914793785,-1,-2,-18,-20,6,1,-1,0
32914795307,-2,3,12,27,-6,1,0,-1
32914795307,-1,0,-4,-8,5,0,2,1
32914816223,0,0,-17,2,-3,1,1,1
32914816223,-2,0,12,-3,2,-2,1,-2
32914817811,-2,0,-2,-5,-11,-2,0,-1
32914817811,0,-5,-2,1,11,1,0,0
32914829941,2,2,2,-15,-12,-2,1,-1
32914829941,-2,-3,8,-1,18,2,-2,0
32914838867,0,-2,-5,7,-2,1,0,0
32914838867,1,-1,1,-29,-10,-5,1,1
32914853042,-3,0,-11,-23,1,-1,1,0
32914853042,0,1,6,-14,-16,-1,0,0
32914859952,-2,-7,-9,42,17,1,0,0
32914859952,-1,-1,-1,-20,-3,1,2,-4
32914876289,1,2,1,-7,3,-2,-1,-1
32914876289,0,1,0,19,-3,-1,-3,-1
32914877823,1,1,-20,39,-7,1,0,-1
32914877823,-2,-1,4,-22,1,1,2,1
32914889996,-2,2,12,30,-1,0,0,0
32914889996,1,-1,6,7,2,-3,0,0
32914898946,0,0,-2,-35,-9,0,0,-1
32914898946,0,4,-18,-32,14,2,1,-3
32914913233,-4,-9,15,19,-1,0,-1,0
32914913233,-1,4,1,-9,1,3,0,1
32914920011,-3,-6,-6,-31,-12,-3,-1,0
32914920011,-1,-2,-2,45,-6,-2,1,0
32914936458,1,2,0,-36,5,3,1,1
32914936458,1,-2,-8,4,-2,-3,1,-1
32914937845,-2,-2,-2,-7,-2,-1,0,-1
32914937845,-1,0,5,-4,-6,-4,-2,0
32914958846,0,1,3,12,3,-1,-2,-1
32914958846,-1,-1,-1,-3,-1,1,-1,-1
32914960356,0,2,-6,-4,-5,-5,-2,-3
32914960356,0,-2,5,-24,-9,-2,0,0
32914973170,-1,0,-10,1,11,2,-1,-1
32914973170,-1,-1,9,34,-3,2,0,-1
32914979994,-1,0,0,-6,-4,1,-1,0
32914979994,1,-3,7,-16,9,0,-1,-1
32914997034,0,0,1,24,-7,-1,1,-2
32914997034,-4,2,-7,-10,2,-3,0,-2
32914998567,1,-1,18,18,3,0,-1,0
32914998567,-3,-4,-10,-14,-7,-1,0,-1
32915018673,0,4,-5,-19,-2,-5,1,0
32915018673,-2,-2,27,-15,-5,-1,-2,-2
32915020305,-1,2,-10,-24,1,-3,0,1
32915020305,-1,-4,-3,27,-8,-2,-1,0
32915033106,-1,-2,-15,-11,1,-3,-2,-2
32915033106,-1,2,-10,-1,4,0,0,-1
32915039837,0,1,19,-18,-3,0,-2,-1
32915039837,-1,-4,3,21,19,2,1,0
32915056355,-1,-4,-1,-4,-7,1,0,-3
32915056355,-1,-1,-5,-10,3,0,0,1
32915057868,1,0,0,16,13,3,2,0
32915057868,-1,1,-13,-60,-5,0,-1,-1
32915080253,-3,1,17,71,-2,-4,-3,0
32915080253,-1,-4,-10,-6,14,3,-1,0
32915083231,-1,-2,-7,0,-5,-1,-2,-2
32915083231,-1,1,5,-4,-6,1,0,0
32915085967,0,0,-3,-26,-1,-2,1,-2
32915085967,0,-3,-2,0,-3,1,-1,0
32915094449,-1,-3,1,11,1,-1,1,1
32915094449,1,0,-6,5,-3,-1,-2,-1
32915108178,1,1,-1,25,-4,-1,0,-1
32915108178,2,2,3,-40,-4,-3,-1,0
32915115039,0,-1,-6,17,6,-1,-3,1
32915115039,0,3,3,3,11,1,6,2
32915122563,0,-3,-1,-23,-3,0,-1,2
32915122563,-3,1,1,5,2,5,2,2
32915131389,3,4,0,21,5,4,0,-2
32915131389,2,1,-3,-5,-7,0,-2,-2
32915145713,2,1,19,0,4,3,0,0
32915145713,1,0,3,3,-4,-3,1,-1
32915152403,-2,-10,-25,-47,-4,-1,1,1
32915152403,-2,5,16,40,-19,-4,-5,0
32915168065,3,3,-11,17,35,2,2,1
32915168065,-2,2,-5,-23,3,2,0,1
32915174927,-1,1,8,-10,-4,0,2,-1
32915174927,0,-1,-8,11,7,0,-2,1
32915191306,-1,-2,8,-8,-13,0,1,2
32915191306,0,-1,0,13,-6,-5,-3,-3
32915192854,0,2,-10,30,3,2,0,1
32915192854,0,-1,0,-36,-9,-1,1,-1
32915205581,-2,-5,-12,-24,-16,-4,-1,-4
32915205581,-1,-2,0,2,-6,-4,-1,-1
32915212563,-1,0,11,-6,-2,-2,-1,-2
32915212563,0,-1,5,12,7,1,0,-1
32915228196,-1,0,-20,20,7,2,2,0
32915228196,0,2,4,-18,-17,-6,0,-1
32915235036,-1,1,-5,1,-5,-1,1,0
32915235036,-2,-5,-6,12,-7,-1,1,2
32915252006,-3,2,7,-34,-1,-1,0,0
32915252006,2,-2,-2,38,13,2,1,2
32915254283,1,2,-8,-29,1,-2,0,-1
32915254283,-1,-1,10,13,3,0,-3,0
32915265772,-1,-3,14,10,-5,3,-1,0
32915265772,-4,-4,6,25,9,-1,-2,-2
32915272544,1,1,-7,0,-2,0,1,1
32915272544,1,-1,-29,-21,-3,-1,2,-1
32915288178,4,6,19,1,-6,-2,-1,-1
32915288178,1,-3,-6,-16,8,4,1,0
32915295054,-1,-2,2,-19,5,-1,1,0
32915295054,-1,0,7,11,-15,-3,-1,-2
32915311268,-2,-5,-10,21,9,1,-2,2
32915311268,-1,-2,-1,19,-2,3,-1,-1
32915312830,0,1,13,-11,-2,-1,-1,1
32915312830,0,1,-4,0,-2,0,-2,-2
32915325612,3,2,-5,-13,5,1,3,0
32915325612,-1,-5,-10,4,-7,-4,-3,-2
32915332436,-1,-3,3,17,-5,-2,-1,-1
32915332436,-4,0,-3,-18,10,0,1,-1
32915348192,-3,-1,-3,-6,-4,-4,-1,-2
32915348192,-2,3,9,-1,-1,1,0,0
32915354881,-1,2,-11,-7,0,-3,-1,-1
32915354881,1,-2,10,29,3,-2,-1,0
32915371282,-2,0,-13,-20,-4,0,-2,-1
32915371282,-1,4,9,-15,-1,-1,0,0
32915372847,-1,0,11,20,-3,-1,-2,-2
32915372847,0,-5,-10,-1,3,1,0,0
32915385632,0,-3,-4,0,-6,-3,-2,-1
32915385632,-2,-4,-13,-13,-3,-3,-2,-1
32915392581,-1,-3,1,-11,6,1,-1,-3
32915392581,-1,2,6,29,3,-3,-2,-3
32915408220,0,-3,6,-4,-11,-1,0,0
32915408220,0,0,-6,-8,3,-1,1,0
32915415086,0,-2,-19,4,-4,-1,1,0
32915415086,-1,-2,19,-10,-4,-3,1,-2
32915431466,0,-1,-2,-23,6,2,1,1
32915431466,1,-4,-5,3,-11,0,-2,-2
32915433053,0,0,23,3,1,2,0,0
32915433053,-1,0,-14,-16,-4,-1,-2,-1
32915445720,-1,-1,-9,14,1,0,-2,0
32915445720,1,-2,-14,-6,1,-2,-1,-2
32915452524,-1,0,21,-7,-3,-2,-3,-1
32915452524,-1,2,6,24,-5,0,1,0
32915469555,0,-1,11,12,9,2,-1,0
32915469555,-2,-1,-16,-12,-1,0,-1,-1
32915475033,-3,-2,-8,-1,-2,0,-2,0
32915475033,-2,1,3,-4,-2,0,-1,-1
32915491868,0,-5,-15,-15,4,0,-3,-2
32915491868,0,4,8,-1,-6,-2,0,1
32915493293,0,2,-5,-26,14,0,-1,-2
32915493293,-3,-5,-18,2,0,1,1,0
32915505612,-3,2,11,6,-1,0,-1,-2
32915505612,0,-3,10,25,2,1,1,0
32915512591,-1,-4,-16,-16,-9,-2,-1,0
32915512591,-1,-1,-3,-3,4,-3,-2,0
32915528288,-1,2,13,12,-5,-2,0,-2
32915528288,-2,0,-1,-21,-5,0,-1,0
32915535038,0,1,-7,6,-1,2,1,-1
32915535038,2,2,7,-16,-2,0,0,-2
32915551833,1,-1,-15,3,-9,-3,0,-1
32915551833,1,-1,12,-5,1,-3,-2,-2
32915557433,0,0,4,14,-2,-2,-1,1
32915557433,-2,-4,-6,-4,6,1,0,-1
32915565704,-1,-1,-8,-9,-10,-1,0,-1
32915565704,1,3,0,3,0,-2,-2,-1
32915572555,-1,-2,3,25,0,-2,0,3
32915572555,1,3,16,2,-2,-1,-2,0
32915588153,-5,-4,-7,2,9,-2,-1,-1
32915588153,1,2,0,-8,2,1,1,1
32915595086,1,2,-12,-10,0,0,-3,-4
32915595086,-1,-3,-8,-31,-13,-1,-1,1
32915611419,2,0,3,4,8,5,3,0
32915611419,-2,-3,-7,5,0,0,0,-3
32915612947,-2,-3,9,0,1,-2,-2,-2
32915612947,0,0,5,-6,-1,1,-2,1
32915626429,0,-2,-16,-14,-5,-2,-2,1
32915626429,-3,-8,-21,-3,-4,0,-2,0
32915632559,-1,2,24,30,-2,-1,-1,-2
32915632559,-1,0,-14,-19,-1,-2,-1,-2
32915648901,1,3,-3,20,-5,-4,-2,-1
32915648901,1,0,3,6,4,-1,-1,1
32915654981,1,-4,-4,-2,-2,2,3,4
32915654981,0,0,0,0,1,0,-1,2
32915670601,-1,1,10,2,-1,-1,0,2
32915670601,3,4,4,34,1,3,2,-1
32915671387,1,0,5,-23,0,0,-1,0
32915671387,2,1,2,-10,-2,-2,0,0
32915686413,3,-6,-5,9,2,-2,0,-3
32915686413,-2,3,-2,10,1,-1,0,-3
32915692420,1,4,0,-3,-2,-2,0,0
32915692420,-2,-2,0,6,7,1,-1,-1
32915708898,-1,1,-4,-11,-3,-3,0,-1
32915708898,1,1,1,-18,-3,-1,1,1
32915715031,-2,-2,-1,19,0,-1,-2,-1
32915715031,-1,4,-5,-2,-2,-2,1,-4
32915730705,-5,1,0,3,-2,-1,-1,0
32915730705,-4,0,-6,-1,-2,0,-2,-2
32915731385,-5,0,2,-17,4,-2,-3,-1
32915731385,-3,-3,4,12,-1,0,1,0
32915746441,1,0,6,3,-3,0,-2,-1
32915746441,4,2,6,-15,-2,0,-1,1
32915752529,1,1,-18,13,1,2,0,-2
32915752529,1,-2,2,-6,-1,-2,-1,0
32915768978,-1,-4,2,-15,-9,-2,-1,-3
32915768978,0,-4,3,-11,6,-1,-1,-1
32915775052,2,0,0,23,-1,-1,1,-1
32915775052,0,-4,-7,1,-3,0,0,-1
32915790677,1,5,16,13,1,0,-1,-1
32915790677,1,2,1,0,2,-4,-2,1
32915791424,0,0,0,-16,3,-1,1,0
32915791424,2,-1,-20,9,1,1,-1,-1
32915814636,-1,-4,11,-3,-5,-1,-2,0
32915814636,-1,1,7,-16,-2,-2,-1,-2
32915815579,-2,-2,-6,26,4,-1,0,-2
32915815579,1,1,22,-34,-2,1,0,1
32915827577,0,-2,-13,-7,3,-1,-1,-1
32915827577,-1,0,-6,12,3,2,1,1
32915835030,-1,-4,-4,-12,-5,1,-1,-2
32915835030,0,0,7,24,2,0,-1,-2
32915850537,-2,0,-12,-13,0,-1,1,1
32915850537,-3,-5,-2,-2,-9,-4,-1,-2
32915857606,0,0,8,9,10,1,0,0
32915857606,0,-1,-8,-5,0,-1,-1,-1
32915866420,1,3,-10,-2,4,0,-1,0
32915866420,-1,-3,16,23,-7,-2,0,0
32915872557,-1,2,-6,-23,-6,-5,0,0
32915872557,1,3,-6,-6,1,-4,-1,0
32915887503,1,5,20,37,5,2,0,1
32915887503,-2,-3,-2,-21,0,1,-2,-1
32915895138,-1,1,1,14,-2,0,-2,-2
32915895138,-1,-5,-9,-7,1,-2,1,0
32915910837,0,-2,-8,14,-1,-2,0,-1
32915910837,-1,-3,-4,-6,2,0,-1,-2
32915911368,-1,2,17,1,0,1,0,0
32915911368,-4,-5,-24,-8,-6,-3,-3,-2
32915926461,-3,-6,-16,-21,-3,0,0,0
32915926461,1,1,-5,18,1,1,0,1
32915932646,11,0,4,-32,-3,1,1,1
32915932646,-18,0,5,-15,-3,-4,-2,-3
32915947436,-3,-1,53,16,1,1,-1,-2
32915947436,-8,-2,-72,-44,-3,0,-1,0
32915955087,5,-15,-19,46,0,2,-1,2
32915955087,-5,7,27,34,-1,-2,-1,7
32915978175,37,-2,6,59,-2,-4,-3,-24
32915978175,-25,7,38,-48,0,2,1,-2
32915978910,-12,-2,-22,22,1,3,-2,-4
32915978910,11,-5,-26,-29,-3,1,-1,1
32916000635,-14,-2,-9,-8,-1,0,0,4
32916000635,11,-5,4,-43,4,1,-2,0
32916001359,12,4,37,30,-3,-3,-2,-2
32916001359,5,1,1,1,4,-3,-4,-10
32916015533,-30,-2,-5,-7,-3,0,2,8
32916015533,24,5,-17,-8,-5,-5,0,0
32916016352,-12,-2,2,-20,-1,-1,1,1
32916016352,12,5,21,-9,2,2,1,-1
32916038449,-9,-8,9,-17,2,1,-2,0
32916038449,0,-3,12,36,2,-2,-1,-2
32916045802,-25,-7,-45,-31,-10,-7,-2,0
32916045802,18,1,-21,13,-3,-1,2,8
32916068915,0,-2,28,44,3,-2,-3,-8
32916068915,-35,1,2,8,3,0,-1,-3
32916069594,7,4,15,-18,-7,-1,0,-1
32916069594,-2,-9,-25,28,7,2,2,3
32916075664,-10,10,32,-38,0,1,1,7
32916075664,41,5,16,37,-7,-3,-3,-4
32916076413,4,-2,-14,38,8,1,-1,3
32916076413,24,-2,-18,-102,-12,2,2,-5
32916098251,-35,7,-15,79,-3,-1,0,-3
32916098251,-21,-3,54,76,2,2,1,0
32916099029,38,2,14,-36,-8,-5,-1,18
32916099029,-44,4,18,5,-14,-2,-2,-10
32916120727,40,2,-32,-43,0,0,-2,1
32916120727,12,0,-25,25,6,1,0,3
32916121425,-52,-2,6,-105,7,1,-7,-38
32916121425,-45,-15,0,127,19,1,-1,18
32916135621,5,3,-13,-56,-12,-1,1,-10
32916135621,0,-3,8,-12,0,-1,-5,10
32916136348,33,3,-16,0,-8,-5,-4,3
32916136348,-7,1,18,20,10,2,1,-2
32916158105,-3,-5,-8,24,3,-1,1,-21
32916158105,20,-2,-31,-70,9,3,0,-12
32916158863,-10,-4,50,29,-4,-3,0,13
32916158863,39,-3,-3,-64,-4,-1,-1,3
32916180692,-1,2,-9,-26,4,1,2,12
32916180692,20,-8,-16,-7,-2,1,2,0
32916181416,25,14,1,46,10,-1,-2,-5
32916181416,4,2,0,-78,-6,2,0,-4
32916195808,20,-3,-4,8,-4,-5,-3,6
32916195808,-28,1,7,-9,-5,-2,-18,-2
32916196438,-7,-1,-5,-6,0,1,23,-4
32916196438,-11,-5,-33,15,-2,-3,0,-5
32916218158,1,1,21,4,3,-9,-18,5
32916218158,-12,1,1,-22,-4,12,18,9
32916218936,5,-1,-2,44,0,-1,-8,1
32916218936,12,-1,50,92,5,4,-8,-2
32916241287,-4,2,-5,-97,-5,9,21,-11
32916241287,-6,3,25,94,9,-3,-2,-5
32916242053,-4,-5,-27,-87,-8,-6,9,0
32916242053,19,6,-29,-18,2,5,7,1
32916255475,0,-3,4,-14,-1,-1,0,0
32916255475,-3,1,50,65,3,-4,-2,-2
32916256291,-10,1,-39,16,-3,0,-1,0
32916256291,-1,2,-4,-33,-3,-2,-5,-3
32916278171,-5,-8,-15,-15,-4,-4,12,5
32916278171,32,12,-18,-29,-1,-1,-3,-2
32916278932,4,-14,8,6,1,-1,-13,-3
32916278932,-23,6,-17,14,0,-6,3,-17
32916301457,-13,-4,8,91,11,9,-1,3
32916301457,6,-3,7,-98,-17,-4,-1,-3
32916302063,1,7,1,16,4,3,-1,5
32916302063,3,5,16,-21,1,0,2,3
32916315704,6,-6,-47,55,-7,-5,-7,2
32916315704,-11,-1,11,-69,-5,-7,-3,0
32916316566,-7,-3,-5,7,7,7,2,1
32916316566,-6,-3,25,11,1,-1,-1,2
32916338081,6,8,12,-72,-4,-1,-10,9
32916338081,-8,-7,-19,64,4,-1,5,5
32916338902,-11,-11,-24,-78,-11,-8,-3,-3
32916338902,9,3,1,39,2,0,14,5
32916361355,3,2,-3,72,16,-1,-19,-28
32916361355,-8,0,-47,-90,-19,1,4,30
32916362081,-4,0,9,30,3,-1,-4,-1
32916362081,-2,-1,11,34,8,0,-7,-5
32916376193,-1,-2,-20,29,-13,-1,6,3
32916376193,-8,-5,-14,16,6,0,-3,-11
32916383263,0,0,9,10,1,6,-3,3
32916383263,2,2,-10,-79,-15,-3,-7,2
32916397999,-1,0,23,-2,4,0,0,-9
32916397999,1,-3,-7,14,7,-3,-3,15
32916399015,-3,-1,-10,-8,0,1,1,4
32916399015,-2,-4,1,8,1,-2,-4,-6
32916421453,-1,-9,-28,-52,0,2,3,8
32916421453,-1,4,-3,62,9,-1,-3,-14
32916422122,-4,1,18,-11,-5,-1,-1,-4
32916422122,-1,-2,-8,-33,-1,1,-1,4
32916435779,1,1,17,18,0,-1,-2,4
32916435779,3,0,-14,75,-1,0,6,-3
32916436434,-3,5,-8,-52,6,-1,-2,-4
32916436434,5,-2,0,69,-4,-1,-1,3
32916458247,-1,-1,41,46,4,-5,-1,3
32916458247,-5,-2,-39,-70,-7,-1,2,-9
32916458992,2,4,5,127,8,-1,1,2
32916458992,-7,-5,12,-83,-10,-6,-23,0
32916481272,1,0,-7,-17,-3,7,36,4
32916481272,0,3,7,-99,1,-3,-6,-4
32916482118,7,6,29,-52,-4,5,30,-5
32916482118,-8,-17,-63,31,-6,-13,26,-5
32916495098,-4,0,-1,25,-4,3,-27,-1
32916495098,-7,-5,24,-60,-5,-6,1,0
32916503193,2,6,11,12,7,8,-7,-18
32916503193,-10,9,17,-13,6,0,2,-1
32916518067,7,-6,-57,-40,-6,-6,0,-1
32916518067,32,3,0,4,2,1,2,1
32916519017,-22,0,6,20,-6,-6,-12,7
32916519017,18,3,31,33,-3,3,-6,-2
32916541298,-2,2,-23,-78,2,1,-3,3
32916541298,-33,-11,4,101,15,5,-1,-19
32916542084,0,10,29,-32,-18,-5,-6,13
32916542084,5,-1,-10,-103,-5,4,-4,-25
32916555161,-5,1,-7,21,22,7,7,11
32916555161,16,0,32,56,-27,-11,-21,5
32916563278,7,-5,-79,41,7,-1,-15,-88
32916563278,-25,-3,4,-50,-3,1,16,46
32916578285,9,0,-10,-128,2,-4,-16,-10
32916578285,1,-6,-9,119,12,1,15,-7
32916579017,-2,-5,26,26,-10,-4,-7,-1
32916579017,15,6,0,6,6,5,-14,-7
32916602758,-9,-1,-16,-15,-4,-4,-3,-3
32916602758,-2,-3,-9,-46,-13,-1,-2,-10
32916605054,6,-2,-9,-98,6,0,-19,30
32916605054,-6,1,7,5,4,-2,-3,-8
32916608440,9,-3,21,-27,-6,-8,-6,20
32916608440,-12,-1,25,53,-4,1,14,-6
32916625109,-4,-4,-26,-62,7,4,17,2
32916625109,-1,0,2,1,-4,-2,1,33
32916629975,1,1,33,29,-6,-5,6,-23
32916629975,9,-2,-18,-70,1,3,-16,2
32916637464,-9,-4,2,7,4,2,11,25
32916637464,15,1,-42,91,5,2,-8,-9
32916653363,-15,-5,42,13,-5,0,0,-13
32916653363,2,8,-31,-23,4,5,8,9
32916653928,8,-1,1,48,-6,-8,-3,3
32916653928,-9,-10,0,85,3,1,10,-9
32916667615,6,10,-29,-32,2,9,4,9
32916667615,-12,1,60,74,7,-4,-9,0
32916675113,-5,-5,-21,-103,-9,-6,-1,-4
32916675113,-1,1,23,-20,-1,0,-11,-4
32916690100,-1,-2,-13,1,-5,-2,-1,8
32916690100,6,2,-18,-24,-2,0,22,-9
32916697631,4,7,9,13,0,0,10,10
32916697631,-4,-2,23,12,0,-3,-6,-4
32916713250,-2,-3,-23,-4,2,2,8,-8
32916713250,-2,3,-3,-39,2,-1,5,13
32916713997,-2,-3,10,12,3,3,-15,6
32916713997,1,2,-22,-20,-1,0,10,-1
32916727413,-1,-3,1,14,-3,-2,-8,-6
32916727413,-3,-2,-10,-37,0,-2,-6,-2
32916735098,0,-4,-10,51,0,1,8,7
32916735098,3,-1,10,-14,-1,0,4,-2
32916750117,2,6,11,-8,-11,0,-1,5
32916750117,0,2,16,32,-11,-3,15,-8
32916757458,-1,9,23,-51,-13,0,-14,7
32916757458,-2,-8,-11,-15,17,0,-10,-24
32916773291,1,4,20,26,4,-2,5,32
32916773291,-3,-4,-25,-66,-4,2,10,-4
32916774080,-1,-8,-15,5,-8,0,-5,1
32916774080,2,9,28,81,-5,-3,4,9
32916787450,0,-4,-5,-62,18,0,-3,0
32916787450,-2,0,-14,-7,5,-2,-7,-2
32916795097,0,-2,-4,41,10,-1,8,-3
32916795097,0,0,-9,-41,-1,-1,-2,0
32916809943,-2,-5,-10,33,-8,-5,5,-11
32916809943,-5,-1,22,45,2,0,-12,-2
32916817618,0,1,27,6,5,3,2,-3
32916817618,-2,-2,-31,-40,-11,0,1,1
32916833289,2,8,13,48,-3,-1,0,-5
32916833289,-1,0,15,3,-1,-3,-8,3
32916833914,-3,1,19,-46,-8,-2,0,0
32916833914,1,1,-27,-20,0,0,3,-2
32916847661,-3,-5,10,40,3,2,0,-4
32916847661,0,1,28,-23,3,2,-5,3
32916854980,0,0,-24,41,-1,-2,3,-3
32916854980,0,2,26,19,1,0,2,1
32916870038,-4,-3,-44,10,-13,-4,0,-5
32916870038,3,2,7,-91,-10,-3,-4,-3
32916877756,5,-5,9,44,10,-1,0,-2
32916877756,-2,-1,8,-108,-3,0,-2,-2
32916892639,-1,-3,11,101,11,3,3,1
32916892639,-15,-6,-33,101,-6,0,0,7
32916900800,19,5,5,-14,4,-4,-3,-12
32916900800,34,-2,-10,-101,-9,-3,-8,-13
32916907599,-58,-3,9,79,1,-1,-12,-2
32916907599,2,-6,-8,-71,1,0,6,8
32916915086,-18,-1,-8,74,2,-1,2,-2
32916915086,12,-2,20,101,6,-3,-6,3
32916930132,16,1,-6,-128,-3,0,-6,-18
32916930132,18,8,-10,69,13,0,-8,2
32916937505,3,-11,5,-64,-7,2,4,6
32916937505,-4,0,-6,-99,-15,-4,7,12
32916952509,2,2,2,63,-3,-1,-2,0
32916952509,-11,-9,-34,17,0,1,2,3
32916960702,-4,1,-15,11,-1,-3,-13,-27
32916960702,-3,2,23,41,4,2,43,43
32916967671,-46,-8,-12,-68,-3,-1,-16,-15
32916967671,15,5,28,-6,3,1,-5,0
32916975099,-7,0,-6,-20,-2,-1,2,-11
32916975099,-20,-8,-37,-13,-1,1,-8,-9
32916991378,35,4,47,30,6,-4,5,7
32916991378,-15,-4,5,-22,0,-1,4,-10
32916997704,-8,2,9,-21,0,-1,-5,13
32916997704,-2,3,-29,-54,-2,2,-7,-10
32917012460,21,2,12,55,2,2,15,11
32917012460,43,6,15,13,-1,-5,-52,8
32917020663,-26,-17,-12,-59,1,0,26,1
32917020663,-3,0,2,-32,5,1,-1,-3
32917027511,-2,-1,-14,35,-5,-3,-2,-12
32917027511,-4,-1,-19,-105,-6,-6,-3,-2
32917035100,42,4,20,127,-5,-2,-4,11
32917035100,-26,-1,-47,-48,7,0,-5,-10
32917050143,-1,-6,53,35,8,-1,-9,4
32917050143,-3,-1,22,71,-10,-5,18,-6
32917057602,19,2,21,-2,0,3,8,7
32917057602,-6,-3,-38,-32,-7,-5,1,-10
32917072564,14,5,27,-28,6,8,-15,6
32917072564,-13,-5,-25,-75,-3,-3,-8,-6
32917080723,-31,0,18,60,2,0,-6,-4
32917080723,24,0,20,111,-1,-6,-5,6
32917095780,-21,4,-2,-76,-5,4,-13,-7
32917095780,0,-1,3,8,0,2,0,-7
32917096468,32,5,-20,-30,3,3,12,4
32917096468,-25,-4,-23,-7,-5,-7,-12,-7
32917109996,18,1,-15,32,1,-4,12,13
32917109996,-15,-9,11,-35,-9,3,14,-3
32917117661,9,10,-23,4,0,-11,-21,2
32917117661,8,-1,61,38,23,23,20,2
32917132536,9,-1,-33,-4,3,4,-5,-8
32917132536,-6,5,15,127,2,5,10,14
32917140883,-5,5,7,-65,1,-2,-16,-30
32917140883,-6,-4,12,68,-10,-6,23,10
32917155755,6,-6,-17,-1,-4,-4,-3,4
32917155755,21,9,-15,6,-9,-5,-8,-7
32917156597,-44,-2,4,90,14,4,16,18
32917156597,2,-2,-6,-93,0,2,0,5
32917170052,1,5,7,-62,-6,-6,0,-11
32917170052,-23,-4,11,60,6,0,-4,1
32917177543,-5,-2,8,-84,-11,-2,-8,4
32917177543,15,2,20,84,10,4,-5,-11
32917192726,-54,-8,-31,-107,-17,-9,7,11
32917192726,2,8,2,-69,8,3,12,-26
32917200830,-1,-8,19,39,-4,-1,-4,2
32917200830,-9,4,-4,61,14,4,-6,-3
32917215862,24,2,-10,-14,-11,-3,0,-7
32917215862,-6,-6,-2,-61,14,-2,6,-1
32917216519,-5,-7,-57,-44,-5,3,0,4
32917216519,5,-4,37,-8,-15,-8,-11,4
32917229992,10,11,10,88,13,0,4,-8
32917229992,-4,-6,8,-32,-8,-1,0,3
32917237631,5,-7,-43,-65,-5,-3,2,10
32917237631,-6,-1,38,90,3,-7,-17,-17
32917252578,19,-2,-68,-84,-15,-3,12,18
32917252578,-26,5,44,104,10,1,-7,-4
32917260853,54,3,3,-57,1,2,-1,-6
32917260853,-45,1,35,14,1,-4,-10,-9
32917275812,59,0,-13,23,1,0,15,-1
32917275812,-6,-6,-32,-34,-8,-7,-41,13
32917276461,-8,-2,-14,-15,2,4,20,-6
32917276461,15,3,-12,12,3,4,23,-6
32917290242,-13,-6,34,15,6,4,5,-1
32917290242,2,-22,-3,-100,-16,-9,-24,-24
32917297454,9,21,23,27,6,4,5,-3
32917297454,27,1,-48,15,-7,-5,-17,5
32917312539,-15,-6,15,-10,4,-1,-4,-1
32917312539,25,11,-23,92,9,5,19,7
32917320806,-28,-12,-2,-108,-10,-2,-13,0
32917320806,4,1,8,71,-3,-5,5,4
32917335719,-12,3,12,-3,-11,-3,-3,-2
32917335719,13,17,-26,-41,-18,-21,-11,-1
32917336593,-6,-15,35,116,46,41,29,5
32917336593,-4,-9,-7,-81,-6,2,-8,1
32917350035,-1,2,4,38,5,0,-3,-3
32917350035,-3,-3,-2,-40,8,2,15,7
32917357655,-2,12,22,21,-25,-18,-18,-20
32917357655,-1,-3,-17,-27,13,3,-2,9
32917372578,-14,-5,13,-5,8,5,0,0
32917372578,-1,1,-10,35,11,8,9,5
32917380674,-1,5,14,-37,-14,-10,-11,-2
32917380674,-2,-1,4,30,-6,2,-4,-6
32917395854,35,0,-21,-117,-7,-1,3,1
32917395854,-11,-4,0,65,-3,3,3,3
32917396469,-3,-5,-8,39,-5,-10,-4,3
32917396469,1,9,3,-33,-7,-1,0,-1
32917410153,-3,-10,-13,36,-4,-5,-5,-19
32917410153,0,-3,2,29,-2,5,3,-5
32917417611,-6,-6,-15,28,4,-1,-4,5
32917417611,-4,0,-11,-46,-8,-7,-6,-6
32917432538,-10,-1,-6,29,10,1,2,5
32917432538,-2,-3,-5,-39,-4,-2,0,-3
32917440864,-5,-3,-6,-38,-2,-4,0,2
32917440864,1,5,1,121,1,0,0,2
32917455825,-9,-4,-21,-72,7,1,-1,0
32917455825,-3,2,59,25,5,1,5,1
32917456521,2,5,25,-27,-5,-6,-1,4
32917456521,5,-6,-61,63,9,-2,-3,-4
32917469973,-8,1,14,-83,-12,-2,0,4
32917469973,-4,0,-8,-8,1,1,2,0
32917477479,-2,-3,-2,19,4,2,0,-12
32917477479,-13,-6,16,-65,-3,0,0,-2
32917501439,-1,3,-4,71,2,-3,-1,0
32917501439,29,3,20,-9,-1,0,3,-3
32917502970,-34,-8,-21,-27,-6,-6,-4,9
32917502970,11,7,4,-1,-5,-3,-1,1
32917523992,-8,-10,-11,-29,-4,4,4,1
32917523992,-7,-5,5,0,1,-1,0,-8
32917525496,13,2,-8,50,-2,-5,0,0
32917525496,9,-2,-7,-39,-5,-2,-2,-4
32917537682,-64,1,26,43,0,0,-3,-2
32917537682,-9,-1,-3,2,-1,2,0,2
32917546571,5,1,-1,-35,-7,0,-1,2
32917546571,-5,-2,-26,-16,1,1,0,7
32917560804,18,0,12,15,-2,-3,-1,-12
32917560804,4,-2,-64,-39,0,2,2,2
32917567658,-17,1,27,-55,5,-3,-3,-2
32917567658,10,1,28,-29,1,1,2,5
32917583961,3,1,-19,-10,0,-2,-2,3
32917583961,6,-1,-2,-11,1,4,4,5
32917585659,10,0,-15,14,-2,0,-2,-3
32917585659,9,-2,32,16,-5,2,-1,-4
32917597505,1,-3,-40,-21,-5,2,-5,-1
32917597505,-2,3,10,32,3,1,-1,-1
32917606464,8,0,-1,-12,1,-4,-1,5
32917606464,12,-4,9,-70,1,-5,-2,-1
32917621557,-28,0,29,95,3,-5,1,-2
32917621557,-15,-6,-7,-19,-5,-5,-1,2
32917622915,4,2,-7,70,6,-4,-3,-1
32917622915,-11,-1,-12,-12,-6,-3,1,-2
32917643904,23,1,11,-22,-2,-7,-2,4
32917643904,-20,-4,9,30,4,-3,-2,-15
32917645441,-10,-7,-16,-18,-5,-1,0,-4
32917645441,3,8,24,55,5,1,-1,-1
32917657650,6,-1,0,9,4,3,-1,2
32917657650,-1,2,8,-12,-6,-2,-1,6
32917666476,1,-3,-30,4,2,-1,-2,0
32917666476,-6,2,7,-79,-9,-2,-1,-3
32917681453,9,2,22,34,0,3,0,-1
32917681453,11,-2,-8,-52,0,1,0,4
32917683100,5,3,19,56,-1,1,-1,0
32917683100,-8,-2,-12,-21,0,2,3,2
32917711280,-2,1,2,-9,-1,-3,-3,-1
32917711280,-2,1,-26,4,0,3,1,-1
32917718315,23,4,-12,-3,-1,1,-2,0
32917718315,-19,-11,-15,24,0,2,1,5
32917718994,29,0,-2,4,-2,-2,2,1
32917718994,-11,7,-11,50,6,0,0,-7
32917726518,33,-3,17,-38,-7,-4,-3,1
32917726518,-42,2,-18,-36,0,0,3,-1
32917740882,-1,-4,26,-27,1,-3,-1,8
32917740882,56,2,0,18,3,1,0,6
32917747656,-78,0,-2,-48,-4,0,2,-4
32917747656,7,-3,-7,83,5,-1,-22,-4
32917763871,2,-10,-21,-54,-7,2,17,6
32917763871,-55,-4,44,-8,-7,-3,-5,-18
32917765490,48,-11,-69,-105,-7,-4,-5,4
32917765490,19,3,21,111,8,8,6,12
32917786541,-24,1,-48,-32,-1,-1,-7,-9
32917786541,-20,-4,27,20,0,0,-2,4
32917788165,4,0,26,7,6,0,-1,2
32917788165,-6,-4,-50,-104,-6,-7,-3,-7
32917800911,11,5,18,88,3,2,2,-5
32917800911,-18,-11,-12,-128,-13,-7,0,9
32917807688,-10,10,30,47,4,5,1,-3
32917807688,18,-5,20,22,1,-2,2,-6
32917825453,14,6,22,-35,-4,0,-18,-3
32917825453,10,-1,-33,-9,8,2,-3,4
32917826983,-23,-6,28,54,-5,-4,0,2
32917826983,31,19,67,59,4,1,6,3
32917846492,13,-23,-41,62,1,-7,-4,-7
32917846492,-20,5,20,-78,-8,0,2,1
32917848105,32,-3,-6,24,3,1,-4,4
32917848105,-30,3,25,-3,-2,4,6,-1
32917860907,20,11,16,-15,2,-1,-2,8
32917860907,-18,-2,44,122,4,4,6,-2
32917867709,-12,-3,-33,-74,-2,-3,3,-5
32917867709,7,-11,-92,-35,-2,-2,13,7
32917884046,-47,7,15,-12,0,1,-1,-7
32917884046,46,-6,-27,-32,-8,-6,-12,-4
32917885538,-2,1,-6,-18,-2,1,6,-3
32917885538,1,-2,46,-87,-5,0,-5,-1
32917906526,-2,-6,-107,-76,9,6,4,6
32917906526,-18,2,-24,36,-3,-7,1,-1
32917908008,-9,9,48,21,10,5,1,-3
32917908008,14,-15,-37,26,-11,-2,-9,-3
32917920826,-38,6,50,10,-1,-2,-3,0
32917920826,14,-3,-4,-76,-2,3,4,-1
32917927733,-1,5,13,105,0,-2,-23,3
32917927733,-20,2,-1,-19,0,1,18,-9
32917943884,59,12,-13,-23,1,0,7,4
32917943884,2,-3,65,61,5,-2,-2,14
32917945620,15,4,-2,-101,-13,-4,3,-11
32917945620,-21,-14,-23,3,5,-5,-10,-5
32917966534,35,3,13,13,-4,-1,-3,-1
32917966534,2,3,-15,58,5,-1,2,2
32917968159,3,-7,-47,-66,-1,-1,11,6
32917968159,12,6,-54,30,12,7,-5,3
32917980859,-45,-12,30,37,-8,-6,-7,-9
32917980859,-25,1,-38,-36,-5,-3,-9,1
32917987604,5,-1,36,103,6,-3,-3,-7
32917987604,-8,3,23,-48,2,-3,-4,1
32918003885,-19,-3,-25,-36,-4,1,-3,5
32918003885,22,3,-15,-13,3,6,-3,2
32918005424,-20,-6,18,2,-12,-8,16,-13
32918005424,-3,8,16,-19,-1,1,-9,-5
32918026480,0,-10,17,124,-5,-2,1,-3
32918026480,12,8,55,74,9,-3,-7,-10
32918028007,29,12,20,6,-15,-3,-3,30
32918028007,-30,-12,-6,-48,-7,-3,-12,-12
32918040785,-1,3,17,8,6,0,5,-5
32918040785,11,2,-32,-76,1,4,5,4
32918047537,-5,-8,-12,99,1,1,-7,8
32918047537,53,15,7,-5,6,7,21,5
32918064029,-5,-11,-19,-18,-13,0,-3,3
32918064029,-17,-6,4,-75,-6,-4,4,-4
32918065536,-4,-5,-22,-21,7,3,-3,-8
32918065536,6,-1,33,0,-5,-4,-6,1
32918086562,8,2,16,65,18,3,3,-1
32918086562,13,3,-58,22,-13,-2,6,8
32918088080,-10,-1,42,-25,-6,-5,-3,-11
32918088080,-37,-8,-6,18,1,-3,0,-1
32918100120,-6,3,-6,-24,1,-3,0,2
32918100120,-3,-4,-12,49,6,1,-1,-3
32918109010,-2,2,14,3,0,0,3,1
32918109010,-20,4,-2,74,2,-1,-2,0
32918123995,6,-1,25,-56,-7,-3,0,2
32918123995,9,10,1,60,26,6,-9,-4
32918125630,-2,-8,-12,-118,-25,-6,18,1
32918125630,23,-3,-6,68,1,2,6,0
32918146540,-15,-3,25,28,-6,-1,-3,-2
32918146540,6,-4,3,-3,4,2,2,-2
32918148104,-5,1,-1,83,9,6,-7,0
32918148104,18,-1,10,-70,-14,-8,-6,3
32918160733,-14,4,-10,16,2,3,2,-14
32918160733,-2,1,31,23,-7,-2,-1,-6
32918167657,-1,-9,-48,19,6,-3,-8,-2
32918167657,1,1,28,15,-8,-3,1,-1
32918183998,53,0,-7,-60,11,2,0,5
32918183998,-19,0,56,-23,-16,-8,3,-2
32918185571,-2,-2,-27,76,9,1,-5,-5
32918185571,0,3,11,8,4,1,-3,2
32918206594,2,-2,8,25,-2,-2,-3,-5
32918206594,7,-5,-11,85,12,1,5,3
32918208056,8,4,43,4,-13,1,-1,5
32918208056,-7,-14,-34,38,-5,-6,-6,-5
32918220859,-6,-1,-16,-7,-1,-1,0,1
32918220859,9,-2,-26,-38,-9,-1,2,-2
32918227757,-39,-2,-16,16,8,4,2,1
32918227757,11,3,-16,28,4,1,-2,5
32918243986,-4,5,42,-68,-20,-3,-2,-12
32918243986,-2,-5,-14,61,-10,-5,-5,-2
32918245678,7,-1,11,2,5,0,-4,-7
32918245678,0,0,31,-12,-4,-1,3,2
32918266559,-15,-2,6,-10,6,1,1,6
32918266559,-9,2,-24,-42,0,1,-1,-5
32918267960,18,-1,-12,-33,1,0,-3,1
32918267960,-6,-11,-35,-37,-1,-5,-2,0
32918280700,-6,6,20,47,8,3,2,-1
32918280700,33,-2,-1,-45,-7,-3,-3,6
32918287520,-36,-2,-37,-43,0,0,0,1
32918287520,9,6,8,47,9,2,1,-2
32918303135,5,3,-37,-42,-6,-2,2,6
32918303135,-12,-1,35,1,5,3,3,-2
32918311520,3,-3,-6,-23,4,-1,-2,-1
32918311520,-4,-3,-11,-36,-5,2,2,-3
32918326418,-5,1,-45,32,3,-3,-1,0
32918326418,9,-3,-3,-99,0,-2,0,-3
32918327987,10,7,56,65,-4,-2,-1,1
32918327987,3,3,5,40,5,0,0,1
32918340179,5,-2,-2,10,3,0,-1,-5
32918340179,-3,1,14,-81,-4,0,2,-1
32918349022,-9,-8,-39,57,17,1,-2,0
32918349022,-10,-2,21,-88,-23,-7,-6,-5
32918364027,-5,-1,2,3,2,0,1,3
32918364027,-3,3,2,46,6,3,1,0
32918365613,6,5,20,-11,2,2,2,-3
32918365613,1,-1,-2,-8,2,3,1,2
32918386523,-7,-5,-9,53,-7,-4,-3,-1
32918386523,0,3,-25,49,-2,-2,-3,-1
32918387953,-17,0,7,-53,-8,-4,-2,-1
32918387953,0,15,82,-3,5,2,0,3
32918400236,1,-18,-52,-18,-2,-1,-1,1
32918400236,33,-1,-19,-46,-5,0,1,7
32918408955,-66,11,39,-70,-2,-1,-4,-18
32918408955,53,0,8,63,-1,0,-1,12
32918424085,-28,-8,14,67,15,-3,-4,-10
32918424085,5,-9,-52,3,-13,-4,0,6
32918425529,31,1,-38,65,21,8,3,20
32918425529,-1,-2,10,-75,-11,-3,-2,-21
32918446416,24,0,4,-128,-19,-1,-1,-12
32918446416,69,3,14,121,16,2,-2,-2
32918447993,-64,-5,12,13,-13,-7,-8,-7
32918447993,-5,-6,-69,-82,-3,-2,-2,-9
32918460021,-8,3,70,94,8,2,3,-6
32918460021,-34,-1,31,-93,9,5,5,-8
32918469076,45,-57,-24,63,-5,-10,-15,-36
32918469076,20,44,43,-84,-11,6,4,21
32918484150,56,10,-80,-16,-8,-11,-4,17
32918484150,-25,5,-7,-44,-10,-1,6,-34
32918485623,55,1,5,-128,3,6,7,33
32918485623,19,-28,1,108,-15,-11,3,6
32918506666,26,36,53,13,7,9,6,15
32918506666,-58,17,-30,-49,6,7,4,-4
32918508203,-48,-20,61,58,-23,-21,-17,-52
32918508203,31,-14,-106,52,-9,3,13,15
32918520158,37,18,48,73,-2,-7,-22,0
32918520158,23,7,-72,-82,9,-1,13,10
32918529048,14,19,27,70,-18,7,-15,-14
32918529048,-30,-4,81,-93,-2,-3,3,13
32918544055,9,0,-65,21,13,5,-3,-12
32918544055,57,3,107,127,-43,-27,19,50
32918545700,-39,-51,-127,-73,12,2,-29,-26
32918545700,42,0,67,-97,1,9,-2,-41
32918566604,-121,14,-14,-116,-20,-5,2,1
32918566604,19,-26,115,115,10,-2,-26,-35
32918568141,62,10,-46,-101,-1,-6,29,51
32918568141,-47,28,22,-11,22,-10,5,0
32918580056,16,-33,-71,-24,7,6,-26,7
32918580056,-75,-30,-74,-120,-23,9,39,-5
32918589091,16,31,47,-4,34,8,-1,27
32918589091,-108,-13,-40,119,32,15,12,-36
32918604070,69,-22,51,-128,-25,-3,1,3
32918604070,-113,12,-64,-7,2,-21,-39,-21
32918605689,77,23,-57,46,-6,-6,1,2
32918605689,43,44,64,-16,38,10,1,23
32918626419,-95,-31,32,-98,-33,-10,16,-2
32918626419,10,-9,92,80,5,11,-7,0
32918627917,22,9,-28,-115,-1,9,3,18
32918627917,13,-50,-104,90,-18,-14,-13,43
32918640170,48,38,85,-30,1,2,5,2
32918640170,-34,2,77,-79,14,8,-4,19
32918649186,45,-32,127,103,26,4,21,51
32918649186,23,-9,-46,-48,-47,1,0,-29
32918663514,-34,-8,-14,28,28,2,-1,-14
32918663514,36,-6,-73,-61,-14,-3,-2,14
32918680298,14,17,-34,-40,6,2,7,-1
32918680298,-62,-15,-15,-93,-8,-7,-15,-3
32918680948,14,17,-34,-40,6,2,7,-1
32918680948,-62,-15,-15,-93,-8,-7,-15,-3
32918682624,55,1,5,-128,3,6,7,33
32918682624,19,-28,1,108,-15,-11,3,6
32918687652,26,36,53,13,7,9,6,15
32918687652,-58,17,-30,-49,6,7,4,-4
32918690250,-2,-8,-51,83,23,1,3,6
32918690250,40,12,-11,113,18,2,-7,-5
32918694228,-54,-1,-93,45,-25,-2,7,-26
32918694228,92,-2,-36,-33,-4,-5,-15,-23
32918700219,-20,18,-80,-69,4,-2,-4,-11
32918700219,-41,-9,41,39,3,-1,0,24
32918709085,5,-13,-66,103,2,3,3,-15
32918709085,93,17,27,-14,-2,2,9,20
32918723442,-75,-19,-31,-34,2,4,7,-21
32918723442,32,-5,-25,55,8,0,-3,0
32918730191,-30,3,39,-79,-9,0,3,4
32918730191,-29,1,4,51,14,-2,-1,4
32918746431,16,-15,12,-93,-12,-1,1,3
32918746431,21,22,29,-57,-12,-4,-5,-8
32918748029,-21,17,67,-22,-6,-4,-4,-10
32918748029,-43,-19,31,56,13,-1,-4,-7
32918769189,9,25,104,49,-3,-3,2,1
32918769189,5,-10,-81,28,3,-6,-8,-2
32918770548,24,-1,74,-7,-1,-9,-7,-3
32918770548,33,7,5,55,-1,3,5,14
32918784106,-5,-22,-43,8,-8,-7,-6,3
32918784106,18,36,73,90,24,5,1,-2
32918785728,-64,7,24,-61,-19,-3,-3,-6
32918785728,-32,2,13,24,0,-2,-2,-3
32918806399,12,-2,30,54,5,0,3,-1
32918806399,3,-7,42,24,-1,-3,-4,-5
32918807917,0,8,-19,-15,-14,-5,-1,-1
32918807917,-22,-4,-6,-80,15,-1,0,-1
32918829116,14,1,32,127,22,4,4,7
32918829116,-6,4,40,-66,-13,-5,-3,-5
32918830728,13,4,-42,-52,4,4,3,2
32918830728,-30,-8,11,91,-9,-3,-4,-6
32918842707,9,-5,8,13,2,0,-2,2
32918842707,-51,-8,-10,-58,-14,-1,-1,-21
32918851581,8,4,-14,-22,9,2,-1,-6
32918851581,-26,-3,2,-49,-6,-3,-3,-1
32918866635,25,-3,-8,41,-16,-2,0,2
32918866635,-26,-13,-61,6,-5,-3,-1,-5
32918868143,22,10,62,81,7,0,-2,8
32918868143,-58,8,11,-13,0,-1,-1,-5
32918888992,5,0,-5,18,-11,-5,0,1
32918888992,12,-21,-74,-128,4,1,0,-3
32918890560,-19,18,15,3,5,1,0,-9
32918890560,1,-15,9,7,0,3,-2,6
32918903453,4,12,-15,-8,-2,3,2,0
32918903453,9,0,18,-31,-3,2,0,2
32918910120,-6,-8,-18,41,-4,0,0,2
32918910120,7,-1,-10,13,3,-4,-2,-4
32918926597,-7,6,-5,-41,-7,0,1,-1
32918926597,8,-31,-51,13,11,1,-3,-3
32918928077,13,14,-17,38,2,3,2,3
32918928077,1,10,15,8,-11,-4,-3,-4
32918949085,3,2,29,25,5,-1,-3,-3
32918949085,13,23,7,38,10,4,2,8
32918950690,-7,-8,42,-28,-5,-4,-2,-3
32918950690,0,-4,-20,16,32,8,2,1
32918963499,-13,-40,50,-30,-10,-4,-2,-3
32918963499,6,-1,-55,-20,-18,-2,-2,2
32918970115,1,-4,56,-37,-23,-9,-1,-3
32918970115,-1,11,10,-17,-3,-2,-5,-9
32918986595,22,10,-3,-2,3,5,5,6
32918986595,20,38,-4,1,19,5,7,11
32918988077,-14,0,-19,1,-4,-4,-6,-5
32918988077,-3,-26,-12,21,-2,-5,-5,-6
32919008938,-7,-5,-21,-47,-2,-9,0,-3
32919008938,-2,-11,-4,-6,-40,1,-2,-6
32919010486,6,6,-18,110,66,18,9,13
32919010486,25,-3,-43,-66,-28,-7,0,6
32919022614,-1,5,-15,-6,14,-2,-3,-1
32919022614,-16,5,6,28,-20,-9,-2,-8
32919031576,-14,11,8,63,5,-1,-8,-11
32919031576,-3,-20,12,-19,-7,4,5,5
32919046429,-6,-3,-36,-20,-4,2,-2,-12
32919046429,15,-20,2,36,-11,-9,-5,8
32919048128,-16,-23,-23,-120,-4,0,1,-2
32919048128,13,24,24,86,4,-6,-2,-2
32919069105,0,11,-20,-119,-19,-2,0,2
32919069105,-7,-9,16,9,35,9,0,-4
32919070528,-20,-3,-13,-36,-23,-5,-1,-3
32919070528,8,6,-12,16,4,2,0,2
32919082732,2,-2,-2,35,13,5,4,4
32919082732,0,-2,21,-15,4,-3,-3,-2
32919099244,4,0,-39,11,-7,-3,-1,-1
32919099244,-13,-5,11,-12,-12,2,5,1
32919106414,1,5,9,36,14,3,-2,1
32919106414,-1,-33,-20,-21,-8,-5,-1,-1
32919108126,26,4,-11,-13,-3,5,5,2
32919108126,-8,60,7,-24,3,-2,-1,-3
32919129054,-12,-75,31,33,-14,-2,-2,2
32919129054,6,28,-20,6,20,1,2,0
32919130721,5,-19,2,-51,3,-1,0,-1
32919130721,5,6,-13,-7,11,3,0,-1
32919142526,-2,7,6,11,-9,0,3,2
32919142526,-3,7,11,-36,3,-1,-2,-2
32919151743,3,-8,-3,4,-3,-3,-2,1
32919151743,-3,4,5,-12,-4,-1,-2,0
32919166612,-2,15,-1,15,-1,1,0,-1
32919166612,-1,-10,5,2,6,1,0,-2
32919168192,4,10,20,0,-12,-3,2,1
32919168192,-7,-23,-10,-9,-10,-4,-4,-4
32919189098,9,7,-45,0,30,7,4,4
32919189098,-15,0,22,6,-9,-3,-1,-2
32919190634,-4,-4,-9,20,9,-1,-3,-4
32919190634,-7,6,10,14,-11,-2,2,1
32919203452,15,5,-4,4,-4,-2,-4,1
32919203452,0,-11,-6,-11,-6,-1,-1,-2
32919210216,-2,12,25,14,0,-3,-2,-4
32919210216,-9,-18,6,-23,0,1,-1,-3
32919226333,-2,12,-7,9,-7,0,-2,-1
32919226333,3,7,8,-10,-1,0,-2,-1
32919232731,1,-2,17,30,-1,-3,0,2
32919232731,-6,-24,-16,-10,-3,0,-2,-1
32919248956,12,32,3,-21,-3,2,0,3
32919248956,-5,-8,30,31,8,0,-1,0
32919250592,-2,-17,-45,-29,6,0,-2,-2
32919250592,-20,1,25,20,16,0,2,-2
32919262606,2,-11,-3,-5,-17,-6,-2,2
32919262606,2,-4,-17,-20,-21,-5,-5,-8
32919271550,14,60,22,17,27,12,11,16
32919271550,2,-47,-49,-5,-2,1,-2,0
32919286524,-20,-9,3,-1,-10,-4,-6,-8
32919286524,19,13,34,-5,-12,4,5,3
32919288076,-32,-26,-5,-1,3,-6,-9,-9
32919288076,15,27,7,-6,-7,-1,-1,1
32919308962,-9,-17,10,13,0,0,-2,-4
32919308962,7,27,-26,-7,26,3,1,4
32919310542,0,-8,10,-4,-12,-2,-1,-4
32919310542,1,6,13,-1,-1,1,1,2
32919322784,-6,-5,-6,-16,-5,-7,-4,-2
32919322784,-3,3,-13,12,0,-2,-1,1
32919331586,2,-9,-7,-4,-7,2,2,3
32919331586,-3,1,10,13,6,-1,-2,0
32919346514,5,14,3,1,0,0,3,-1
32919346514,-3,-8,-5,-20,0,-1,0,3
32919348044,2,-6,-67,-4,-7,-3,-3,-2
32919348044,7,0,8,-6,-7,-5,-4,1
32919376615,-9,3,-6,25,17,4,2,-1
32919376615,-5,-3,20,11,-1,-1,0,3
32919378094,-2,-8,5,-16,-17,-5,-2,-3
32919378094,2,8,5,-5,2,-1,0,0
32919382634,3,3,0,-7,1,-1,0,0
32919382634,-3,-13,-44,2,-4,0,-1,-2
32919391629,3,5,12,2,4,2,1,-1
32919391629,4,-8,2,1,-2,0,2,0
32919406626,7,17,-3,-8,0,0,3,9
32919406626,1,-6,-7,-6,-7,-4,-1,-3
32919408110,-3,-11,-13,-2,-3,-3,0,1
32919408110,5,14,-21,1,8,0,0,-3
32919428948,-4,-11,-4,-8,-4,-2,-1,-3
32919428948,-1,-1,-1,-15,3,-1,-2,0
32919430503,4,4,11,10,-11,-2,-1,-1
32919430503,-4,1,10,15,2,0,-2,-1
32919442552,-2,0,-8,-33,-17,-1,-2,-3
32919442552,-3,3,8,17,19,5,-1,0
32919451599,3,0,23,3,-4,1,1,0
32919451599,1,-7,-8,0,-7,-3,0,1
32919466409,-1,2,5,-6,1,-3,-2,0
32919466409,-3,-4,-6,-17,-6,-1,-1,-1
32919468048,1,-2,9,-5,-3,1,-2,0
32919468048,-1,3,23,4,5,-1,-1,-2
32919488944,-2,-2,-4,3,1,-1,0,-3
32919488944,-2,2,9,7,-2,0,1,1
32919490541,1,-2,-3,2,12,-1,-1,2
32919490541,-1,-2,-14,-14,-9,-4,-2,3
32919512817,-2,-4,0,10,2,1,-1,-1
32919512817,-6,-5,-10,1,7,-2,-2,-2
32919514483,5,17,7,-7,-13,0,-1,0
32919514483,-5,-23,-4,6,-1,-1,0,-2
32919526432,7,10,-9,-4,5,0,-1,-1
32919526432,-6,3,11,5,-9,1,3,1
32919528038,-2,-6,0,-7,-2,-3,-1,-3
32919528038,-1,8,-1,6,-1,1,0,-1
32919548883,-3,-4,-4,-2,-5,-1,-1,-2
32919548883,1,-2,-9,-5,1,1,1,-1
32919550531,-2,-2,-10,3,1,2,-2,-2
32919550531,0,10,46,-28,-7,-2,-3,-1
32919562566,-1,-8,-16,35,6,1,-2,-1
32919562566,3,6,0,-8,-6,-4,0,-3
32919571598,-2,-3,-1,-3,-11,-5,-1,0
32919571598,0,-3,-13,0,11,3,2,0
32919586464,-1,-2,5,-8,-5,0,0,1
32919586464,1,2,8,7,-4,-1,-1,0
32919588076,-1,-3,1,1,-2,-1,-1,-2
32919588076,0,-3,-17,-5,-7,1,-2,-2
32919608917,-1,3,13,2,0,-1,0,-1
32919608917,-1,-3,-9,3,1,-2,0,-1
32919610545,-4,0,8,-5,2,1,1,-2
32919610545,1,-5,-5,5,14,0,0,-1
32919622600,4,10,-35,-1,-3,3,1,-1
32919622600,1,-5,18,-1,1,0,-2,0
32919631560,-1,-1,7,5,1,-3,0,1
32919631560,1,0,-5,-3,3,-2,0,0
32919653907,-2,-4,1,-7,1,0,0,0
32919653907,0,0,-12,-4,-4,-4,-2,0
32919655562,0,3,-6,-3,-12,-3,-2,1
32919655562,-3,-1,-5,8,12,0,-1,1
32919668944,-1,-5,14,-2,3,-3,-3,0
32919668944,0,0,30,5,2,4,-1,-1
32919670569,0,-11,-72,-15,-13,-5,-1,-3
32919670569,-1,-2,4,-17,-14,0,-1,-1
32919691407,-3,-3,22,20,4,-1,-2,-1
32919691407,-1,-3,4,4,2,-1,0,1
32919693022,-1,2,5,-3,0,-1,-2,-1
32919693022,0,5,-17,2,4,-1,2,0
32919706480,-3,-7,-2,-6,3,-1,2,-1
32919706480,-2,-2,-12,-2,-5,3,-1,-1
32919708053,-1,0,32,2,0,2,-2,-1
32919708053,-1,1,-7,6,15,1,-1,-1
32919728923,1,-3,8,2,6,2,0,1
32919728923,3,1,-12,0,-6,-3,-2,1
32919730551,1,1,5,-2,-1,-2,-1,0
32919730551,-4,-4,12,16,-3,0,1,-1
32919751391,1,12,23,-26,-10,-2,0,-1
32919751391,-3,-18,-20,25,22,4,2,1
32919753030,0,2,-3,-9,13,4,-1,1
32919753030,-2,0,8,9,-6,-3,-1,-3
32919766442,-1,-2,3,-3,-2,1,1,-2
32919766442,-1,3,-4,-8,-7,-4,-1,-1
32919768057,0,1,10,1,1,-1,0,0
32919768057,-1,-2,-15,-2,-5,0,-1,1
32919788928,-1,-1,-8,-1,1,0,-1,0
32919788928,1,2,-1,-7,-4,-3,-1,0
32919790529,0,-4,-1,10,4,-2,-1,1
32919790529,2,-4,-2,-9,-12,0,-1,1
32919811662,-3,-3,7,2,4,4,0,0
32919811662,-2,3,-10,2,-10,1,-1,0
32919813267,2,0,-4,0,2,-1,-1,-2
32919813267,-1,0,0,1,2,-1,0,-1
32919826665,1,0,-5,-1,-6,-4,-1,-3
32919826665,-1,-2,-2,-5,1,-3,0,-2
32919828197,-3,1,4,2,0,-2,0,1
32919828197,-1,-2,-11,-1,-5,1,1,1
32919849124,-3,-5,-13,0,3,-1,-2,0
32919849124,0,7,30,-12,-15,1,-2,-1
32919850610,0,-5,-40,4,3,-2,-1,-1
32919850610,-1,1,5,6,3,0,-1,-1
32919871641,-1,-5,-1,-2,-6,-2,0,0
32919871641,-2,3,-10,2,1,-1,0,-1
32919873176,-1,-1,13,-6,-3,1,0,-1
32919873176,-2,-3,1,-6,-4,-2,-3,-1
32919885911,1,-3,-19,4,1,0,-2,-1
32919885911,-1,2,10,-7,-8,-1,0,-2
32919892712,0,6,74,11,18,8,4,0
32919892712,-2,0,-4,8,1,-2,0,1
32919909041,-1,-2,-13,-13,-4,-2,-2,-1
32919909041,-3,-3,-6,-3,-1,-4,-1,2
32919910644,-1,-2,0,-4,-7,-1,-1,-2
32919910644,1,0,-3,-2,-3,1,0,-2
32919931656,1,-4,15,-1,3,-2,-1,1
32919931656,3,0,-5,7,6,-2,-2,-2
32919933178,-1,2,-1,-3,-2,-1,-3,-1
32919933178,-2,-1,-7,-6,4,4,2,1
32919945976,-1,0,1,3,-8,-1,1,0
32919945976,1,-1,-5,-2,1,1,-1,1
32919952803,1,-2,-1,-8,-3,-3,-2,0
32919952803,-1,0,-6,-7,-5,-3,-2,0
32919969153,0,3,-15,7,3,1,0,0
32919969153,1,-2,59,3,-3,-3,0,-1
32919970665,-2,-4,-48,-11,-1,0,-1,-1
32919970665,2,0,2,-3,-6,-3,-1,1
32919991656,-1,2,-8,-6,-5,0,-1,-2
32919991656,0,-1,-11,9,17,1,1,1
32919993126,0,-2,0,5,-2,-1,1,-2
32919993126,0,-2,4,-7,-5,-4,-1,0
32920005855,0,9,-1,1,-2,-6,-2,-3
32920005855,-3,-14,-26,7,1,1,-3,-2
32920012620,-3,2,24,1,-4,-3,-1,0
32920012620,-2,-5,-45,6,2,0,-1,0
32920028994,0,1,27,1,2,0,-1,1
32920028994,-1,3,-8,-10,-9,-2,0,-1
32920030575,0,-3,-39,1,-4,-2,-1,1
32920030575,1,2,47,0,-2,-1,-3,-2
32920051568,0,-3,-6,2,10,2,1,1
32920051568,0,0,-7,-18,-4,0,3,-1
32920053101,1,1,-4,21,-2,2,-1,-3
32920053101,-1,3,-2,-17,-8,-3,0,1
32920065950,0,-2,7,-9,-3,-1,0,-1
32920065950,-1,4,-8,-3,4,4,-1,0
32920072796,-2,-6,12,3,-2,0,-1,-1
32920072796,0,1,-4,-1,2,-1,1,-1
32920089102,-2,-3,2,4,3,-1,-1,1
32920089102,-1,-3,-12,0,-4,-1,-2,1
32920090633,0,7,-11,-16,0,-2,-1,-1
32920090633,-2,-3,40,5,2,2,-2,-1
32920111590,-2,-3,-20,-2,-4,0,-2,-1
32920111590,0,2,2,3,5,2,0,0
32920113114,-2,-1,-6,-3,1,0,0,-1
32920113114,-1,0,10,7,-1,-4,0,1
32920125305,0,-3,-36,-5,-6,-4,-1,-1
32920125305,2,0,5,10,-3,-1,-1,-1
32920134138,0,-4,12,-1,2,1,1,-1
32920134138,-1,1,-12,-2,0,-2,0,-1
32920149166,-2,-2,11,10,-1,-1,-1,-1
32920149166,-2,-1,-9,-11,1,1,0,-2
32920150642,5,-3,-4,1,3,0,1,2
32920150642,-17,-5,-12,11,-2,0,-2,-3
32920171495,4,4,4,-28,-1,-1,0,-1
32920171495,-3,2,-17,16,-6,-3,0,-2
32920173091,9,-7,-5,-17,0,2,1,-3
32920173091,23,7,-7,34,11,3,1,-9
32920185109,-43,-9,13,-95,-13,-3,-4,0
32920185109,-29,4,-10,113,11,0,8,-8
32920194112,71,6,17,-123,-21,2,1,13
32920194112,-96,-11,-22,39,2,-11,-27,-13
32920208970,31,3,-26,-87,-1,-4,-14,-14
32920208970,43,15,15,-8,-2,-3,-17,13
32920210575,-74,-16,33,-10,18,7,-23,-6
32920210575,112,-12,-19,-65,-24,-6,26,27
32920231460,-90,-8,9,127,-5,-30,43,-10
32920231460,121,11,-13,-128,6,41,9,18
32920233198,-94,-6,6,-13,32,12,-13,43
32920233198,-87,-15,9,73,-37,-5,-9,-19
32920245135,37,12,55,-33,-5,0,27,23
32920245135,80,-19,-28,107,29,-21,1,-31
32920254104,-42,31,-12,15,-28,-44,-49,-25
32920254104,5,-12,-51,-99,40,70,20,23
32920269056,66,-14,30,31,-19,-10,-4,42
32920269056,-128,10,34,20,3,4,40,-40
32920270615,70,19,5,28,33,2,-84,6
32920270615,-68,-24,-8,-66,-32,-49,57,-34
32920291491,68,28,1,23,1,38,17,12
32920291491,40,7,10,30,2,-2,-23,7
32920293094,-77,-25,-103,-91,-16,20,37,-20
32920293094,61,33,60,127,26,6,3,20
32920305239,14,-47,-116,-99,4,-30,-26,-25
32920305239,-86,13,55,-52,-19,2,25,18
32920314116,54,-21,34,42,-10,-16,15,-63
32920314116,17,-5,6,-74,9,-6,-39,10
32920329068,50,-16,-54,127,13,15,-17,-10
32920329068,26,23,100,44,25,-10,-58,-4
32920330618,24,-21,-60,-25,-35,6,11,26
32920330618,116,3,-38,-67,0,-7,-4,12
32920351492,-29,-4,41,-45,5,-15,-10,11
32920351492,-41,-3,13,-86,-4,7,18,29
32920353141,19,18,61,-22,7,-1,13,-2
32920353141,-58,0,-34,-38,-13,-4,-54,-23
32920365164,-4,27,69,94,31,20,14,-9
32920365164,-7,-29,40,33,-16,-6,-15,-3
32920374154,99,12,88,122,-3,-1,49,23
32920374154,-80,-6,-10,-53,-11,-13,-14,-34
32920389001,-31,-15,-35,7,1,24,20,-18
32920389001,-58,-28,-128,32,-7,-8,-18,-17
32920390567,33,19,42,-35,5,1,5,3
32920390567,51,15,19,50,18,7,17,14
32920411524,-107,17,95,-12,-24,-6,-10,-6
32920411524,-10,-18,-120,48,-1,-5,-11,-8
32920413196,23,-11,70,69,25,4,9,9
32920413196,39,7,-45,-41,-27,-15,-7,2
32920425122,17,16,26,36,13,2,-6,5
32920425122,93,10,45,-128,-11,-4,22,15
32920434133,-114,-45,-43,10,-17,-29,5,-38
32920434133,18,2,48,-22,-5,15,18,19
32920449102,29,-1,-127,-96,1,-2,0,-6
32920449102,9,3,18,-67,-9,-3,-15,5
32920450606,-16,-4,52,36,5,5,-20,-10
32920450606,-2,-21,-35,-50,3,9,23,3
32920472228,-5,36,20,58,-2,-1,8,4
32920472228,-34,-17,14,30,4,1,-2,0
32920473032,-46,14,-127,-128,-13,6,1,13
32920473032,12,-3,-66,73,7,-5,1,1
32920493337,-63,11,72,86,7,8,-3,3
32920493337,-50,-15,31,-23,3,-2,-20,4
32920494105,48,2,32,73,-4,-3,25,-20
32920494105,-16,19,91,28,4,-2,-9,-7
32920509822,19,-14,-32,-3,9,-5,-2,-6
32920509822,29,10,-55,-100,-3,1,2,1
32920510613,-47,-6,9,-20,-2,3,3,13
32920510613,31,20,-21,-6,8,1,-3,-3
32920530813,18,-13,19,35,-7,-5,-18,-2
32920530813,2,-4,-16,-78,-6,2,20,-4
32920531587,19,-13,3,57,9,4,-5,6
32920531587,-15,1,10,48,11,3,-1,-3
32920553341,-7,-2,6,-128,-15,3,8,3
32920553341,17,13,11,127,3,-1,-4,7
32920554075,11,5,-55,27,3,4,9,2
32920554075,-55,-3,37,28,-4,1,-6,9
32920568325,-40,-5,12,-60,13,2,15,-13
32920568325,-11,-5,35,-10,-13,-5,-22,-9
32920569189,18,-2,-100,-128,-4,0,5,-2
32920569189,-17,-1,53,-24,2,-1,1,-3
32920590814,24,-8,-26,12,-4,-10,-14,5
32920590814,33,7,-52,48,3,-2,14,0
32920591561,-10,18,50,-32,1,4,-2,10
32920591561,9,-10,-6,-90,-15,-9,-20,-2
32920613339,8,-2,-9,-67,-4,-4,9,-2
32920613339,-8,-3,-30,-5,-4,-7,-3,-5
32920614079,20,4,-48,-21,8,6,5,3
32920614079,15,-1,-24,-14,-4,-3,3,1
32920628296,1,-5,12,-3,-1,2,-11,2
32920628296,-1,-3,16,-12,3,2,7,-2
32920629223,-3,7,2,24,-4,-4,-8,3
32920629223,-10,-17,29,-50,5,2,3,-6
32920650828,1,15,-27,123,6,-5,-12,-2
32920650828,11,-8,-34,-34,4,4,4,4
32920651602,-8,2,25,-71,-17,-7,2,-4
32920651602,-24,6,54,86,-4,1,-5,-1
32920673406,22,-8,8,72,1,-2,-8,5
32920673406,-12,5,32,46,9,3,10,-11
32920674120,32,2,15,-6,1,0,-3,2
32920674120,38,-8,-32,12,1,-4,0,1
32920688331,25,4,-16,-10,2,5,-4,10
32920688331,-20,-7,53,59,0,0,3,-12
32920689222,5,13,52,96,-1,0,1,1
32920689222,-11,4,-36,-36,0,7,-1,-4
32920710816,0,-13,-29,-101,-4,-3,0,-7
32920710816,8,0,13,-57,-7,-1,-8,6
32920711575,-4,-3,-26,-52,6,-2,-2,-6
32920711575,49,-2,-58,-42,-1,-6,-2,9
32920733379,-32,-6,-5,27,-6,-3,-7,-23
32920733379,-7,-1,19,26,2,-1,4,-1
32920734107,-53,3,13,23,7,3,0,2
32920734107,-9,-4,-35,16,-5,-3,-1,-2
32920748290,8,-7,3,-50,5,2,-1,2
32920748290,15,8,-9,88,-15,-8,1,0
32920749046,1,-2,58,103,7,-2,-4,-3
32920749046,-4,-7,-1,47,0,1,4,0
32920770753,26,13,-32,-114,-6,0,-2,1
32920770753,3,-13,0,-118,1,1,4,4
32920771624,17,5,30,7,4,2,0,8
32920771624,-55,0,8,10,10,1,0,-10
32920794050,6,-4,-17,23,0,0,2,4
32920794050,0,7,12,-42,-2,-2,1,-2
32920794750,4,-9,-78,-6,-1,3,2,1
32920794750,10,10,69,47,4,0,0,2
32920808340,-28,1,23,74,-9,0,-3,-4
32920808340,5,12,29,61,-4,0,-3,9
32920809221,-8,-5,4,-32,3,5,9,-3
32920809221,31,8,20,-8,6,0,5,1
32920830894,-14,2,-45,-71,-2,-6,-4,-24
32920830894,1,-9,-3,-11,3,2,7,-1
32920831627,-14,-4,-26,38,-4,-2,-7,-2
32920831627,-4,2,-22,-82,-4,1,-4,-6
32920854044,7,-8,11,-40,-2,2,2,9
32920854044,2,4,16,-34,5,-1,0,1
32920854833,-29,-10,-34,-83,-16,-11,-6,-6
32920854833,-2,4,-21,-3,7,2,1,4
32920868331,-3,3,37,29,4,-2,-2,3
32920868331,-12,-4,-37,22,-5,-1,-2,-4
32920869202,14,1,19,-22,-3,1,-1,5
32920869202,-4,-2,-7,-50,1,-1,-2,1
32920890801,2,3,6,-11,-5,1,0,5
32920890801,2,-4,-29,-36,0,0,-1,-3
32920891579,7,3,29,18,1,0,0,1
32920891579,-9,-7,-23,8,-4,-1,1,-2
32920914020,4,11,1,99,29,6,-1,2
32920914020,0,-6,0,-21,-13,-1,2,1
32920914795,2,-13,0,25,1,-2,-4,-1
32920914795,-8,3,2,30,-10,-4,0,-3
32920928454,-4,6,21,-5,6,1,2,5
32920928454,-2,-14,-22,14,-2,-5,-4,-3
32920929127,9,2,3,-15,-20,-4,2,4
32920929127,1,-7,25,27,22,1,-1,1
32920950954,3,21,-3,-30,-37,-2,4,-3
32920950954,4,-16,2,-2,54,9,2,1
32920951611,-18,18,-41,-12,-10,-2,-12,-9
32920951611,-1,-84,28,-3,-17,1,0,4
32920973455,35,68,-14,-4,-19,-5,2,7
32920973455,-15,10,-7,9,12,-2,0,-6
32920974216,2,-10,11,3,-10,-1,3,-5
32920974216,-10,2,-6,19,12,-3,-4,-3
32920988348,-7,-18,-18,-2,-26,-3,-1,3
32920988348,11,18,-22,4,1,1,1,5
32920989223,10,27,31,10,15,3,0,3
32920989223,-5,18,42,-19,-31,-8,-1,-2
32921019013,-5,-47,-6,-2,12,-1,-1,0
32921019013,-1,11,-4,-24,-19,-5,-1,2
32921019796,-4,-17,-5,9,3,0,-2,-3
32921019796,2,14,-6,12,5,3,2,0
32921033212,-3,-19,3,1,-2,-2,-4,-1
32921033212,-1,-1,-13,-10,-11,1,-2,-1
32921040855,5,2,-18,-5,10,-1,3,2
32921040855,3,12,0,-15,-1,1,0,0
32921048492,-5,-7,-15,15,4,0,-3,-1
32921048492,-3,6,-25,-6,-7,-1,-3,-3
32921049149,1,-14,-1,15,1,2,2,1
32921049149,0,17,-16,-10,-12,-4,-1,-2
32921070950,-8,-15,9,-12,14,2,-2,-2
32921070950,3,1,8,22,-8,1,-1,0
32921071675,2,4,-7,-6,0,-1,2,2
32921071675,0,1,-7,3,-3,0,-2,0
32921093503,0,-1,7,-5,10,-2,-4,-3
32921093503,1,-2,5,-20,-4,3,1,0
32921094199,3,7,27,36,-3,-5,2,2
32921094199,-5,7,1,-13,2,-1,1,-1
32921108401,0,-6,8,2,1,-3,0,0
32921108401,0,-1,8,-11,-8,-4,-2,1
32921109262,0,-6,-2,-8,2,1,-2,0
32921109262,1,7,-20,17,6,0,0,-1
32921139194,-3,-4,-3,-7,-7,0,0,-2
32921139194,-2,-4,5,5,20,1,-1,-1
32921139942,1,3,11,-8,12,2,2,0
32921139942,4,-1,-5,0,1,-2,-3,1
32921154102,-2,12,-17,-4,-6,-3,-2,-2
32921154102,-2,-7,6,2,-6,-2,1,-2
32921154819,-2,-18,-21,-9,-10,-3,-2,0
32921154819,-2,-9,3,-15,-9,2,0,-2
32921168495,-1,4,3,-1,7,-1,1,1
32921168495,0,0,21,17,-9,-3,1,1
32921169156,0,11,-2,-8,7,2,-1,-1
32921169156,-1,0,-3,3,-5,0,-1,-1
32921190965,-1,-3,18,-2,-2,0,-2,-2
32921190965,-2,-1,-6,-3,-7,2,-1,0
32921191658,1,1,-6,-7,-8,-4,-2,1
32921191658,-3,4,-3,1,-3,-2,1,0
32921214071,-2,-5,-3,0,21,1,0,0
32921214071,0,0,21,-6,-3,-2,-2,1
32921214897,0,-7,-25,3,-4,0,0,-3
32921214897,0,7,0,4,9,2,-1,-1
32921228365,-3,-3,13,0,0,1,0,1
32921228365,-3,-6,-5,-2,-7,-2,0,-1
32921229094,-2,2,10,-3,-2,-2,-1,-1
32921229094,0,1,-1,3,11,1,0,-1
32921250869,3,-4,1,0,-3,0,1,-1
32921250869,0,2,-2,-1,-1,-1,-2,-1
32921251640,1,-1,-6,-3,2,2,0,1
32921251640,-1,-1,26,0,0,-1,-1,-2
32921274155,-3,-2,19,6,0,1,-1,0
32921274155,0,-5,-43,2,-1,-2,0,-3
32921274793,0,-2,3,-5,1,-4,-3,0
32921274793,1,2,-5,5,-2,-2,-2,-2
32921287722,-2,-4,-6,3,-1,-2,0,-1
32921287722,-1,1,9,-7,9,0,2,0
32921295879,-2,-4,-7,-5,-5,-2,-1,-1
32921295879,0,1,-10,-1,9,2,1,1
32921310833,-3,-5,-5,7,-7,-4,-4,-1
32921310833,4,2,-5,-12,-14,-1,-4,0
32921311642,1,3,9,3,16,4,0,0
32921311642,-1,2,-1,-5,0,2,-1,1
32921334088,-1,-3,-1,4,-6,0,0,0
32921334088,-1,-2,8,3,3,1,0,-2
32921335004,1,-2,0,0,-5,-2,1,-1
32921335004,-1,-2,-8,-14,-11,-3,-2,0
32921347687,0,1,9,20,6,0,0,0
32921347687,-4,3,-2,3,0,0,-1,0
32921355897,-2,-3,-1,2,-3,0,1,0
32921355897,-1,2,-4,-3,3,-4,-1,0
32921370856,3,-2,-5,-11,-2,1,-2,0
32921370856,0,0,5,1,2,0,-1,0
32921371737,-2,0,-1,-5,-9,-3,-2,-1
32921371737,-1,-6,2,13,23,3,2,0
32921394161,-4,-2,-12,-15,-3,-2,-1,-1
32921394161,1,0,-1,-5,-3,-1,-1,-1
32921394807,-2,-3,-1,-1,-1,-1,0,-1
32921394807,-1,0,-5,3,-4,0,-2,1
32921416601,-1,0,0,-1,-3,-1,0,0
32921416601,0,-3,-8,-31,-11,-4,-1,-1
32921417509,0,-2,2,38,27,4,0,-2
32921417509,0,3,9,0,-4,-4,1,-2
32921430850,1,0,-27,-5,-3,0,1,-1
32921430850,-4,-5,9,-1,-9,-1,-1,1
32921431773,0,1,-3,-10,0,-1,0,-1
32921431773,0,0,3,3,-3,1,0,1
32921454062,-1,-2,-3,2,6,1,1,0
32921454062,3,0,-5,2,6,0,-2,0
32921455014,-2,0,-2,-11,-23,-3,-1,-1
32921455014,-2,-3,-9,4,10,4,-1,0
32921467741,1,-2,5,-4,-8,-4,-1,-2
32921467741,-1,-2,10,23,4,-1,-1,-2
32921475978,-1,-1,2,-10,-4,-2,0,-1
32921475978,3,2,-7,-8,-19,-4,2,-1
32921490905,0,3,7,2,26,3,-1,0
32921490905,-2,0,1,2,4,1,0,-1
32921491834,-1,-3,-8,-3,2,0,-1,0
32921491834,-1,-2,2,12,-3,0,-2,-3
32921514165,-1,2,-1,-14,-15,0,-1,0
32921514165,-1,2,6,3,16,-1,0,0
32921514821,-3,-2,0,-19,-2,-1,-2,0
32921514821,-3,-3,-5,-3,-1,-2,-1,-1
32921527758,4,1,2,7,-10,-1,0,-2
32921527758,1,0,-12,-12,-8,-3,-2,-2
32921535926,1,-2,8,6,-2,-3,0,-2
32921535926,-1,1,19,-5,-2,-1,-2,-2
32921550870,-2,0,-8,3,-8,-1,-1,-1
32921550870,-1,2,6,-26,17,3,1,0
32921551648,-1,-2,-9,-4,-1,-1,0,1
32921551648,-1,-2,-8,-1,-4,0,-1,0
32921574082,-2,-6,13,2,3,-1,-1,0
32921574082,0,2,-1,21,-14,-1,0,-1
32921575028,-1,-2,-7,-7,-8,-4,-3,-3
32921575028,2,3,-7,1,8,1,-1,-1
32921596539,1,2,30,14,5,2,0,1
32921596539,-2,-6,-17,-7,3,-1,-2,-1
32921597297,-2,2,7,15,-11,2,2,1
32921597297,-4,-2,-15,-23,-7,1,0,1
32921610872,0,0,5,-14,-6,-1,-1,-2
32921610872,2,2,-6,27,0,0,1,0
32921611672,-6,-1,6,-20,-4,-3,-3,-1
32921611672,3,1,18,-3,2,-1,-2,-1
32921634262,-1,-3,-7,11,-5,-1,1,1
32921634262,0,-3,-5,-16,-6,1,1,0
32921634978,0,-3,-4,-7,-5,-2,1,-1
32921634978,-3,0,2,17,7,1,0,-1
32921656772,3,15,-10,2,3,-2,-1,-1
32921656772,1,-6,11,0,-8,-3,0,-1
32921657398,1,-2,-22,-3,5,2,1,-2
32921657398,-4,-7,11,13,-6,-4,-2,-1
32921670935,-1,-4,-23,-39,-3,2,-3,-2
32921670935,0,6,-3,36,2,-1,0,0
32921671719,-1,0,10,-30,3,-1,-1,-2
32921671719,0,-2,-26,13,-1,0,0,2
32921694063,-4,-2,27,-27,-14,-2,-1,-1
32921694063,0,0,5,-8,28,3,1,1
32921694934,1,-1,-4,11,4,-1,-1,1
32921694934,1,5,-9,3,-2,-1,-1,0
32921716674,-3,-8,-15,-12,-6,0,1,-1
32921716674,-4,-9,3,16,6,4,-2,-3
32921717410,3,8,18,11,-11,-3,-2,-1
32921717410,-2,-4,-15,-21,2,-1,0,-3
32921730942,0,1,-9,7,4,0,-3,1
32921730942,1,3,18,-18,-10,0,-2,-2
32921731744,2,-3,-18,34,10,3,-1,0
32921731744,-2,-2,5,-8,-3,-3,-2,2
32921754096,-3,4,-11,8,11,2,1,-2
32921754096,-2,-5,7,-10,-12,-2,1,-2
32921754845,0,3,4,3,3,2,0,1
32921754845,-2,-7,-8,-24,-7,2,-4,-3
32921776619,0,0,12,14,-4,-40,-3,1
32921776619,1,4,1,-14,17,26,4,1
32921777341,-2,2,10,7,-3,4,2,0
32921777341,1,3,-10,-17,-1,4,2,-1
32921790924,-4,-3,7,38,8,10,-3,-3
32921790924,-2,-2,-7,4,-11,-17,-4,0
32921791645,0,2,-1,-20,4,1,1,-1
32921791645,0,-2,-2,24,-1,4,0,1
32921814085,0,-4,-3,-13,-13,-2,-1,-2
32921814085,-2,-3,-3,2,-4,-5,-2,-2
32921815040,-2,-2,5,-8,-11,2,-2,-3
32921815040,0,5,-1,18,20,-3,-1,2
32921836637,2,-2,-1,-34,-5,4,1,1
32921836637,-1,-3,3,25,-6,-5,-3,-4
32921837346,0,0,-4,-2,-2,-3,-1,-2
32921837346,-2,-2,14,-13,-8,-4,2,-3
32921850640,2,0,-4,-3,4,2,-2,0
32921850640,-2,0,-5,-5,-6,1,-2,0
32921858480,-1,-1,-3,5,3,-3,-1,-2
32921858480,-3,-1,5,7,0,-2,1,-1
32921874168,-5,-3,-15,-3,4,6,1,-1
32921874168,-1,1,-3,-10,-9,-4,0,-2
32921874874,1,-2,-6,4,-1,1,-1,1
32921874874,1,4,11,2,2,2,1,-1
32921896682,0,1,4,16,2,0,-2,1
32921896682,-2,-1,-21,-33,-9,-4,-2,-3
32921897360,0,-2,9,26,3,-5,1,0
32921897360,2,-1,2,-2,14,4,-1,-1
32921910930,-2,-2,8,13,-6,0,2,-3
32921910930,1,0,0,5,-6,-4,-1,2
32921911675,1,2,-17,-17,-1,0,0,0
32921911675,0,-1,-10,-12,4,-3,-4,0
32921934127,0,-2,15,42,-1,2,1,0
32921934127,-2,-2,-13,-18,-4,1,0,-1
32921934933,2,-1,6,-4,2,0,-2,-2
32921934933,-1,-2,5,-9,-16,-7,-2,0
32921956625,-1,-3,-7,-9,7,5,-1,-2
32921956625,-1,0,9,11,1,-1,-1,1
32921957446,0,0,-3,29,0,-1,1,0
32921957446,-1,0,-5,-28,-4,-2,0,0
32921970943,-1,0,-2,-4,2,1,0,0
32921970943,0,0,-2,10,0,-2,-1,0
32921971684,-2,-1,-11,-12,-2,1,-2,-1
32921971684,2,5,43,27,-4,-1,0,-2
32921994124,-3,-3,-29,-6,1,-2,0,-1
32921994124,2,-4,1,-10,-8,-2,-2,-1
32921995658,-1,-2,-6,-1,14,0,-1,1
32921995658,-1,-3,9,9,-2,0,1,-1
32922016580,0,0,-37,-8,4,0,-2,-1
32922016580,-1,1,17,0,-2,2,3,1
32922018242,0,5,11,-3,5,-2,-1,-2
32922018242,0,-3,-8,8,-3,-2,1,-2
32922030328,-1,2,14,4,8,0,1,-3
32922030328,0,-2,4,13,-2,-2,0,2
32922039328,0,0,5,-11,-5,-1,-2,0
32922039328,0,0,-30,-28,-1,2,0,1
32922054218,2,2,45,26,3,0,-1,-2
32922054218,1,1,-5,-12,2,-1,-3,-4
32922055758,-3,-3,-9,3,-6,-1,0,-1
32922055758,2,0,-12,1,3,4,1,0
32922076754,5,1,-16,-17,-6,1,1,1
32922076754,0,1,13,23,4,2,1,-2
32922078329,-2,-6,2,-5,-4,-3,0,-2
32922078329,-3,-1,-5,-13,-3,-3,-2,-1
32922090445,1,-2,11,20,-4,-3,-3,-2
32922090445,1,2,-16,-9,3,1,2,1
32922099288,-3,-1,-11,-8,-1,0,0,0
32922099288,-3,-3,-10,2,-3,-2,-2,0
32922114227,2,1,18,-11,-1,-1,0,0
32922114227,0,-4,-4,10,-1,-1,-1,-2
32922115763,4,5,-19,-1,8,3,2,-2
32922115763,-1,0,10,15,-5,-4,-2,-2
32922136592,-3,0,15,-10,0,0,0,1
32922136592,-2,1,-29,-15,-5,-3,-1,-1
32922138137,-1,-3,39,17,-1,1,-2,1
32922138137,6,7,-24,18,3,4,2,2
32922150749,-9,-5,7,-18,-4,-1,-1,0
32922150749,2,3,6,5,1,-1,-2,1
32922159235,1,0,27,-11,-4,-1,0,-1
32922159235,-1,1,-19,-4,2,-1,-1,-1
32922174131,-1,-4,-17,-11,-3,-3,-1,0
32922174131,-3,3,17,4,0,-2,1,-2
32922175723,-5,-1,-5,4,-5,-3,-1,1
32922175723,-1,0,16,6,5,2,-1,-1
32922196708,-3,-5,-21,-8,-3,0,0,2
32922196708,-5,-1,7,-10,-1,-2,-2,-2
32922198254,-2,-1,-8,1,-6,3,1,-1
32922198254,-3,0,1,4,2,-1,0,-1
32922210299,1,1,6,2,5,3,1,0
32922210299,2,-4,-1,-2,1,0,0,-1
32922219326,3,-4,-14,-2,-1,0,-2,0
32922219326,2,-1,3,-10,-8,-4,-3,-1
32922234186,4,1,6,6,7,0,1,1
32922234186,7,2,-2,8,0,-2,2,-1
32922235674,-1,2,-3,-14,-5,-3,-3,-2
32922235674,2,-5,12,-6,0,3,0,2
32922256646,0,0,-12,5,-2,-3,-5,-3
32922256646,-3,-2,3,4,-1,0,3,1
32922258277,-2,0,-3,-3,-2,-12,-2,-3
32922258277,-3,-2,10,-1,-6,-2,0,-2
32922270261,0,-2,-13,-16,4,2,0,1
32922270261,-3,-1,-4,-2,0,-2,-2,-2
32922279411,-1,-3,-1,-4,0,0,0,0
32922279411,0,-3,1,9,1,-2,-3,2
32922294231,1,2,-9,0,-4,1,3,0
32922294231,1,1,-1,-17,3,-1,-1,1
32922295791,3,0,0,12,3,1,1,0
32922295791,-2,-1,12,5,-1,-3,-3,-5
32922316722,0,0,-5,3,-13,-1,1,-1
32922316722,-1,0,-2,0,2,-1,-4,0
32922318273,-4,-4,-6,-14,-1,3,0,-1
32922318273,5,0,1,-7,-5,-1,2,2
32922330248,-1,-1,-3,-3,1,-6,-3,-1
32922330248,-2,1,0,-3,-3,2,1,-2
32922339308,0,-6,0,8,7,2,0,-1
32922339308,-6,-1,-1,-3,2,-2,0,1
32922354224,-3,-11,-4,-10,-10,0,1,-1
32922354224,0,3,-1,0,13,3,-2,-1
32922355713,2,4,-1,6,0,2,0,0
32922355713,1,-2,-2,8,0,-3,-2,-3
32922376656,1,0,6,-1,2,1,1,1
32922376656,-7,-8,10,5,-14,-4,-1,-4
32922378276,0,-1,-30,-3,15,1,2,0
32922378276,0,0,26,5,-2,0,1,-1
32922390311,-1,-1,-33,-9,-3,-1,-4,2
32922390311,0,2,25,30,11,4,0,0
32922399233,-5,1,25,-7,-14,-4,-3,-2
32922399233,0,-3,-9,-6,6,2,1,-1
32922414109,-2,2,16,2,2,-2,-1,-2
32922414109,-7,-5,-23,6,-3,-3,0,-1
32922415693,-8,0,-9,0,0,1,0,1
32922415693,-7,-2,2,-1,-1,-1,-1,1
32922436598,0,13,12,-17,-5,-1,0,1
32922436598,-2,-12,-8,37,2,-2,-2,-1
32922438259,1,-2,3,-28,-4,-2,0,-2
32922438259,1,0,-5,-19,-4,-1,1,-1
32922450395,1,3,16,15,6,-1,0,-2
32922450395,3,1,-15,-21,-6,-1,-2,0
32922459321,1,-1,-20,32,1,-1,-1,0
32922459321,1,-4,5,-30,0,1,-2,0
32922474150,-1,-2,0,29,0,-2,-1,-2
32922474150,-2,2,3,-5,-2,1,-1,0
32922475699,-2,-3,10,-11,-5,-1,2,-1
32922475699,-6,-1,-11,0,0,-1,-1,0
32922496627,-3,-3,-6,-10,-1,0,-2,-2
32922496627,4,0,11,-4,-2,0,0,-1
32922498219,3,2,-3,-4,-2,1,1,0
32922498219,2,-1,-11,7,-8,-1,-1,-1
32922510238,2,-3,6,10,4,2,-1,-2
32922510238,1,-3,-17,-14,3,1,0,1
32922519257,8,0,11,4,0,-2,-2,0
32922519257,5,1,-10,13,-3,-5,-1,-2
32922534102,0,-1,2,-2,5,2,1,1
32922534102,3,0,3,-19,-4,-2,0,0
32922535666,-1,-5,-18,11,1,0,-4,-1
32922535666,-1,1,-6,17,2,0,0,-2
32922556645,-1,-2,0,-28,0,-2,-1,-1
32922556645,-1,-2,12,-7,-2,-2,-1,-1
32922558247,1,2,6,16,1,2,-1,-1
32922558247,-2,0,3,1,0,1,-1,1
32922579115,0,-2,-11,11,-1,-2,1,0
32922579115,2,6,3,1,-2,-1,-1,1
32922580664,-3,-10,14,-34,-7,-2,-1,-1
32922580664,-1,0,9,16,3,1,-3,-1
32922594196,-2,-5,-4,-1,-1,-1,0,0
32922594196,0,-2,-7,-6,0,-2,0,-1
32922595743,1,5,2,5,1,-2,0,0
32922595743,-1,-2,3,-4,-4,-3,0,-1
32922616614,-1,-3,-5,-7,1,-2,0,0
32922616614,0,0,-1,14,1,1,-2,0
32922618276,-2,-1,-3,-15,1,-1,-2,-1
32922618276,-1,-2,-2,-1,0,0,-2,-1
32922639161,0,1,6,-2,-8,-1,0,0
32922639161,-3,-3,-18,0,8,1,0,-1
32922640770,-4,-2,21,3,-4,-1,0,-2
32922640770,0,0,-7,3,5,2,0,1
32922654153,-1,-1,7,0,-1,-2,-4,-2
32922654153,-1,-2,-3,-8,0,-2,-2,1
32922655802,-1,0,-3,3,-2,-1,0,-1
32922655802,0,-4,-1,-9,-6,-1,0,-2
32922676603,-3,-3,-3,5,4,2,-1,-1
32922676603,0,-1,-12,-15,-6,-4,-1,-2
32922678253,2,3,-10,-5,5,0,-1,1
32922678253,0,3,7,6,2,-1,0,1
32922706557,0,-1,-6,1,0,0,-2,1
32922706557,0,0,3,-5,-5,0,-1,-2
32922709050,-1,0,-4,1,-1,0,-1,-1
32922709050,-2,-2,-20,-21,-1,-1,2,-1
32922713412,-1,2,30,35,6,1,1,0
32922713412,-1,0,2,-2,0,-1,1,0
32922720321,-3,-3,-7,0,-3,-2,0,-3
32922720321,1,-1,1,0,1,-2,1,-1
32922736639,0,-2,-10,-14,-12,-3,-2,0
32922736639,-2,0,7,11,16,3,2,0
32922738324,0,-2,-5,6,-2,2,-2,2
32922738324,-2,-2,-6,-5,0,1,-1,1
32922759139,-1,0,-3,-5,-5,0,1,0
32922759139,-4,-1,-4,7,-2,-3,-2,-2
32922760725,1,1,5,-2,-4,-1,-1,-1
32922760725,0,2,6,4,4,-1,-1,0
32922774511,-2,-1,-6,-7,-5,-1,-1,-1
32922774511,-1,1,-4,-8,-5,-2,0,-1
32922780240,-1,0,-4,3,2,0,-1,1
32922780240,2,-2,2,1,-6,-2,-2,-1
32922796629,2,-1,-13,-4,4,-3,-1,1
32922796629,0,-1,3,-2,-6,-1,0,-1
32922798270,-2,-2,-2,1,5,-2,0,-2
32922798270,-3,-2,0,4,-4,-2,-1,0
32922819120,-2,0,1,-2,-1,0,0,0
32922819120,0,1,4,-5,-6,0,-3,0
32922820672,-1,1,3,2,4,3,0,-1
32922820672,-1,0,0,3,2,1,-1,-1
32922833549,-3,-2,5,5,3,-2,1,-2
32922833549,0,-2,-6,-6,-6,-1,-1,-2
32922840370,-2,0,3,-7,-6,-3,1,-2
32922840370,-2,1,5,2,4,-1,-1,-2
32922856592,0,-1,-15,-6,-3,1,0,-1
32922856592,1,-1,6,8,2,0,-2,1
32922858223,-1,-2,-14,-6,-3,-2,-1,-1
32922858223,1,0,18,7,5,-1,0,0
32922879260,0,1,6,11,-1,-2,-3,-3
32922879260,-2,-4,10,-2,1,0,-1,-2
32922880780,-1,-2,-5,-7,-4,-4,-1,0
32922880780,-3,-1,-4,-2,-4,0,-3,0
32922893563,-3,-3,0,-7,-2,0,-1,-1
32922893563,-2,-1,-5,4,2,2,2,1
32922900423,1,-2,2,-2,-4,0,0,1
32922900423,0,0,-11,8,4,-1,-1,-3
32922916797,-1,1,20,-1,2,-1,-1,2
32922916797,-1,1,15,13,3,1,1,0
32922918301,-2,-2,1,-3,-2,-2,0,-2
32922918301,-1,-2,-7,-2,-5,-1,-1,0
32922939169,2,-1,-12,-6,-1,2,1,1
32922939169,-1,0,2,-4,-2,-2,-1,0
32922940760,1,1,2,1,-2,0,0,0
32922940760,0,-1,-5,-7,-1,-1,-1,-2
32922953488,-1,-1,-2,11,-1,-1,-2,0
32922953488,1,1,12,-3,1,0,1,1
32922960341,0,-4,9,-3,7,0,-2,-1
32922960341,-2,0,-13,-6,-1,-2,-1,-1
32922984296,-3,-1,-3,-8,-9,-4,-1,-1
32922984296,0,1,-3,3,3,-1,-1,0
32922985823,-2,0,-7,2,2,1,0,-1
32922985823,-1,-1,7,-10,-5,-1,0,0
32922999210,0,2,16,19,6,3,2,1
32922999210,0,-4,-28,-11,-4,-3,0,-2
32923000795,0,1,8,4,0,-1,0,0
32923000795,0,-1,-1,3,-1,-1,0,-1
32923013506,-1,0,-11,-12,-1,-2,-2,-3
32923013506,-1,0,-2,-4,-1,0,0,-2
32923020246,-1,-2,-8,2,-1,1,0,0
32923020246,-1,-2,2,1,-7,-1,-1,-1
32923036687,-2,-2,-5,-8,3,-1,0,-2
32923036687,-2,-4,4,3,2,-2,-1,1
32923038302,0,0,-19,14,1,-1,1,0
32923038302,3,5,31,4,2,1,-2,0
32923059164,1,-3,-26,-14,-3,0,0,-1
32923059164,-2,-2,-8,-11,-4,-3,0,-1
32923060762,-2,-1,1,-2,-1,1,-2,1
32923060762,0,-3,8,6,0,1,-1,0
32923072914,-1,-1,2,-3,-1,1,-1,0
32923072914,-2,0,-2,-1,0,0,-1,-2
32923081812,1,1,5,0,2,0,-2,-2
32923081812,0,0,-13,-9,-3,-2,1,-1
32923096758,0,1,3,8,13,1,0,0
32923096758,0,1,-8,-2,-12,-1,-1,0
32923098267,1,-1,0,-2,4,2,0,0
32923098267,1,2,4,9,7,2,1,-1
32923119298,-1,-3,-8,-3,-3,-2,-1,-2
32923119298,-2,-2,-7,-6,0,-2,-1,0
32923120798,0,1,0,-2,-3,-3,0,-2
32923120798,0,0,-9,-6,-2,-3,1,-1
32923132952,-1,0,8,2,-4,1,1,0
32923132952,0,0,2,3,1,-1,-1,-1
32923141823,-3,-2,0,-7,-3,-1,-3,-1
32923141823,-4,-2,-8,-3,0,-2,-3,0
32923156787,-2,2,7,4,1,-1,0,0
32923156787,-2,-1,-4,-3,-5,0,-1,-3
32923158309,3,1,2,5,11,0,1,-1
32923158309,2,-2,-1,1,1,-2,0,1
32923179310,0,-1,-1,-4,2,0,-1,1
32923179310,0,0,-2,-8,-3,2,1,0
32923180809,-3,-3,-15,0,-3,0,0,1
32923180809,-3,2,5,5,3,-1,0,-2
32923192906,0,-1,-3,-8,-3,-1,-2,-2
32923192906,-1,-3,0,6,5,-2,0,0
32923201789,1,0,2,-3,-4,1,-2,0
32923201789,1,-3,-9,-8,-2,-1,0,1
32923216705,1,-3,0,1,-6,-1,0,-1
32923216705,-1,1,1,-2,1,0,-1,-1
32923218264,-1,0,10,-4,-4,0,0,0
32923218264,-3,-3,-27,-14,-4,0,1,-2
32923239302,2,1,11,8,-7,-1,1,-1
32923239302,1,-1,-11,6,19,2,1,1
32923240812,-3,-1,6,-1,-1,-3,0,0
32923240812,0,-1,6,0,0,-1,-1,-1
32923261782,-1,-2,-7,-7,-5,-1,-1,0
32923261782,2,2,1,-2,-5,-1,-1,-1
32923263369,-2,0,1,2,0,0,0,-3
32923263369,-1,-2,-3,-5,0,0,-2,-1
32923276802,-1,-2,-32,-8,-1,0,-2,-3
32923276802,-2,-1,37,24,1,-1,-3,-1
32923278318,-1,-1,4,-3,-2,-3,0,0
32923278318,0,2,-16,5,-3,0,-1,0
32923299295,-2,-3,3,-7,-1,1,1,2
32923299295,-1,-1,-14,-8,0,-1,0,0
32923300768,-1,0,3,5,-1,-3,1,-1
32923300768,-1,-1,8,4,-2,-3,0,1
32923312940,-1,0,1,2,-2,-3,-2,-1
32923312940,-1,-2,-14,-11,7,2,2,0
32923321829,-2,1,18,14,-3,1,-1,-2
32923321829,-3,-1,18,2,0,2,0,-3
32923336770,-2,-1,-1,5,-1,-1,-1,-1
32923336770,0,1,-3,-12,-7,-1,0,0
32923338246,-1,-1,-12,-6,-1,1,-1,0
32923338246,0,-1,4,0,-3,-3,0,-1
32923359361,0,-1,-2,-3,0,-3,-1,-3
32923359361,0,-1,10,4,1,1,-2,-2
32923360839,1,0,2,-2,1,-2,-2,0
32923360839,0,0,-20,-6,-1,-1,0,0
32923372922,0,-1,14,5,1,0,-1,-1
32923372922,-2,2,-8,-9,-5,-3,-1,0
32923381848,0,-5,-6,11,-2,0,-1,0
32923381848,-1,2,9,-1,3,2,0,0
32923396841,-2,1,-1,-6,-4,-1,-1,-1
32923396841,1,0,-1,2,7,0,-1,0
32923398263,0,2,-8,-11,0,2,0,2
32923398263,-1,-1,14,9,-2,-1,0,-2
32923419359,-2,-2,-16,-2,3,-1,1,0
32923419359,-1,-1,2,4,-3,-1,-2,-2
32923420830,1,-3,-5,-10,-2,-4,0,-1
32923420830,-1,-2,-6,-4,0,-1,0,0
32923432852,1,1,3,0,-3,0,1,0
32923432852,-1,-1,6,9,-1,-1,-1,0
32923441878,-3,-2,3,1,1,1,0,0
32923441878,-1,1,6,5,-3,-3,0,-1
32923456185,-4,-3,3,-3,3,0,0,-1
32923456185,-1,-2,-12,-2,-3,-1,0,-1
32923462947,-2,1,0,-3,-12,-1,-1,-1
32923462947,-1,-2,-10,-1,16,4,1,0
32923479360,0,2,2,-2,3,2,-1,0
32923479360,0,-2,1,3,-2,-3,-1,0
32923480806,-1,0,-8,-10,-7,-3,-2,-2
32923480806,-1,-2,4,-5,-4,-1,-3,-1
32923501705,-1,-2,2,5,3,-2,-2,0
32923501705,-2,-1,0,0,-2,-1,0,0
32923503339,0,-1,-10,-8,0,-1,0,-1
32923503339,-1,0,-2,12,-2,0,-2,1
32923516853,3,3,17,3,-3,-1,-1,1
32923516853,-1,-1,-17,-8,6,-2,1,0
32923518303,1,0,5,14,3,-1,0,2
32923518303,-1,-4,-5,-10,3,0,0,-1
32923539271,-2,-1,-2,-2,0,1,1,0
32923539271,0,-2,6,-1,-4,-3,-1,-2
32923540815,-1,-1,-3,-5,0,-1,-2,0
32923540815,0,-2,-3,0,-3,-1,0,1
32923561742,0,0,0,3,1,-1,-2,0
32923561742,-1,1,-1,-3,-4,-1,0,0
32923563309,-2,0,-2,2,2,-1,-2,-1
32923563309,0,-2,-3,-11,-10,-2,-3,-1
32923584297,1,1,0,-3,-9,-1,1,0
32923584297,1,-1,-2,-14,-7,1,0,-1
32923585779,-3,-1,13,13,3,3,2,-1
32923585779,0,0,-8,-5,-6,-3,-2,0
32923599393,1,-3,-7,-4,-3,0,-1,-3
32923599393,-1,1,0,2,0,0,1,1
32923600818,3,1,1,2,1,-1,-2,0
32923600818,-2,-3,1,-6,-3,-2,0,-1
32923621858,-3,-6,-3,-2,3,-2,-1,-2
32923621858,-1,-2,-1,-7,-5,-2,-1,0
32923623335,-1,-3,-12,-7,3,-2,-1,-2
32923623335,2,2,19,19,4,-1,0,0
32923636828,2,2,-14,0,4,-2,0,1
32923636828,-2,-2,-1,1,0,0,-1,-3
32923638299,1,1,12,4,0,1,-1,-1
32923638299,-1,2,-3,-3,-1,1,0,-1
32923659232,0,-1,2,0,1,1,-1,0
32923659232,0,-1,1,4,0,-2,-1,1
32923660812,0,-2,-9,-11,-5,-1,-2,-1
32923660812,0,-1,-3,8,0,0,-1,0
32923681683,-1,-2,1,-1,-4,-2,-1,-2
32923681683,-1,0,0,0,-1,2,0,-2
32923683295,1,2,-12,-7,14,1,3,0
32923683295,-3,-1,19,15,-3,1,2,-1
32923696185,-1,1,-2,-11,-4,-3,-1,-1
32923696185,0,0,1,5,-1,-4,-1,-2
32923702972,-1,-1,-3,-14,-7,-3,-3,0
32923702972,1,-3,-12,-4,-1,-1,-3,-2
32923719718,-2,1,4,4,3,-1,0,0
32923719718,-1,-2,10,8,1,-1,-1,-1
32923720820,-3,-3,-16,-9,0,1,0,-1
32923720820,-1,0,-1,-4,-2,-2,-2,2
32923741661,-1,1,1,1,-2,0,0,-3
32923741661,-1,0,1,2,-8,-3,-2,0
32923743359,0,-1,7,18,19,2,2,0
32923743359,-1,1,-11,-7,3,1,0,-1
32923756132,-2,0,-1,-3,-2,1,0,2
32923756132,0,-1,14,0,-1,-1,-1,-2
32923762977,-4,-4,-23,-8,-6,-1,-4,-3
32923762977,-2,-3,-18,-5,0,-3,-2,-1
32923779243,1,1,15,5,2,-2,1,-1
32923779243,1,-1,-20,-6,2,-1,1,0
32923780872,1,0,15,9,-5,0,0,-1
32923780872,-1,-2,3,-2,1,-1,0,-1
32923801719,-1,-1,-4,0,-1,0,-1,1
32923801719,-1,-1,-16,-2,1,1,-2,-1
32923803318,0,-1,10,-12,-8,-1,0,1
32923803318,1,3,4,14,-2,0,1,0
32923816185,0,-2,6,2,0,1,-2,-3
32923816185,-2,1,4,0,1,1,1,0
32923822868,-2,0,0,1,-3,-3,-1,0
32923822868,-1,-2,-5,-8,0,0,-2,-2
32923839247,-1,1,2,2,-2,-3,1,0
32923839247,0,0,4,0,2,0,-2,0
32923840815,-3,-3,-10,-5,4,1,0,2
32923840815,0,1,8,10,0,0,-2,0
32923861829,0,0,-5,-2,-1,-1,-3,0
32923861829,0,-2,2,-4,-3,-1,-1,0
32923863347,0,-1,6,-1,-7,-3,-1,-2
32923863347,0,-2,-2,-7,-2,0,0,-1
32923876161,0,-4,-8,1,2,1,-1,-1
32923876161,0,0,2,-2,-3,0,0,-1
32923882883,-1,0,1,4,-2,-1,0,-1
32923882883,-4,-2,-4,-7,0,-1,-1,-1
32923899414,-1,-1,-3,-8,0,1,1,2
32923899414,1,1,-2,13,1,-1,-2,-1
32923900862,0,0,13,4,-4,-3,-1,-2
32923900862,0,1,-1,-5,-7,0,0,0
32923921715,-2,-2,-2,-3,1,-3,1,0
32923921715,-1,-3,-5,-6,0,1,0,0
32923923320,1,-1,2,6,1,0,0,1
32923923320,-1,-1,1,-4,0,0,1,-2
32923936172,-1,1,-2,0,-2,-2,-2,0
32923936172,2,0,4,-4,-7,-2,-2,-1
32923943009,-1,0,0,7,15,0,0,-1
32923943009,-2,-1,2,-6,1,1,-1,1
32923959222,-1,0,-4,3,3,-1,-1,-2
32923959222,1,0,-9,-11,1,-3,0,-1
32923960893,-1,-1,-3,6,-9,0,-1,-1
32923960893,-1,0,1,-5,0,0,0,-2
32923981820,-3,-4,-7,-3,4,3,0,-2
32923981820,-2,-1,8,3,6,0,-2,0
32923983374,2,1,0,-5,-5,-1,-1,0
32923983374,0,-2,-2,-3,-1,-1,-2,1
32923995481,-1,0,-6,4,-6,-2,-2,-1
32923995481,-2,-1,-2,-1,-1,0,0,-1
32924004339,-2,-2,-2,-2,-2,0,0,-1
32924004339,0,-1,-1,2,-2,-2,-1,0
32924019163,-2,0,0,-2,-1,0,-1,-2
32924019163,-2,-1,9,-4,-7,0,1,1
32924020796,-2,-1,-31,-1,3,-1,-1,-1
32924020796,0,0,7,-3,0,-4,-1,-1
32924042057,1,-1,3,5,1,-2,0,-2
32924042057,-3,-1,0,2,3,1,0,-2
32924043322,-2,-1,0,-5,-5,-2,-1,-1
32924043322,0,0,-6,-2,0,1,-1,-2
32924055572,-2,0,-1,0,-2,-1,-1,1
32924055572,-1,-1,-1,1,-1,0,0,1
32924064315,-1,-1,5,-3,-1,-2,-2,-1
32924064315,1,-3,-4,7,-1,-1,1,2
32924079282,-1,-2,1,-7,-4,-2,-1,-1
32924079282,0,3,1,-2,-1,2,-1,0
32924080829,-1,0,22,8,-10,-2,-3,-1
32924080829,0,-3,-7,-3,0,0,0,-1
32924101697,-1,0,-3,-1,-3,0,0,0
32924101697,2,-4,-3,2,-2,-2,-1,-4
32924103309,0,0,0,-5,-3,2,-1,-1
32924103309,-2,-1,4,1,-1,-2,-1,-3
32924115485,-2,-3,1,1,-2,-2,-2,0
32924115485,-3,0,-10,-2,-3,-2,0,2
32924124400,-1,0,5,-4,-2,0,0,1
32924124400,-2,-1,-1,-2,0,-1,-2,0
32924139382,0,0,-18,-9,1,0,2,-1
32924139382,-1,0,8,5,-1,-2,-1,-1
32924140856,-1,-3,1,0,6,-2,0,-2
32924140856,0,1,0,0,3,1,0,-1
32924161712,0,0,7,1,-3,2,1,0
32924161712,-1,-3,-11,-9,-5,-1,-1,0
32924163302,0,1,12,6,9,1,1,-1
32924163302,-1,-3,-25,-5,-3,-1,-2,-1
32924175522,0,-2,-2,-8,0,0,-1,0
32924175522,-3,1,20,22,1,0,-2,-2
32924184326,-2,-5,-21,-10,1,-1,-1,0
32924184326,0,2,7,0,-3,-3,-1,-1
32924199372,-2,-1,2,1,1,-2,-1,-1
32924199372,-1,-1,-10,-6,1,-2,-2,0
32924200930,-1,1,6,3,-7,-2,0,0
32924200930,-2,-2,-3,0,0,0,-1,-1
32924221852,-2,0,-1,-4,-5,-2,-2,-1
32924221852,2,0,1,-1,6,2,0,2
32924223372,2,2,3,5,5,1,-2,1
32924223372,0,-1,4,-3,-2,0,-1,-1
32924235534,1,-2,-1,-6,-1,-1,-1,-1
32924235534,-1,1,-3,15,0,-1,-1,0
32924244351,-1,-2,-5,-3,1,0,-1,-2
32924244351,-1,-2,0,-2,-1,1,0,1
32924259220,-2,0,1,-1,-2,-3,-1,-3
32924259220,-1,-2,-3,-4,6,2,0,-1
32924260861,0,0,-9,-8,-9,-1,0,0
32924260861,-1,3,6,4,-3,-1,0,0
32924281754,-3,-1,5,7,3,-3,0,3
32924281754,-1,-2,1,-8,-10,-3,-1,0
32924283322,-2,0,-17,-8,-1,-1,0,-2
32924283322,0,0,0,-1,0,-3,-1,-1
32924295484,-1,0,22,6,6,2,1,0
32924295484,-1,-4,-9,-3,1,-1,0,-1
32924304362,-1,2,4,-1,-1,-2,0,-1
32924304362,-2,-2,-8,-1,-2,-1,0,-1
32924319295,1,0,2,5,-1,0,0,0
32924319295,0,1,4,-4,-1,-2,0,0
32924320868,-1,-2,2,1,-2,-1,-2,-2
32924320868,0,1,-2,-4,1,-2,1,-1
32924341699,-1,0,-4,-2,-4,-2,-2,-1
32924341699,2,0,-1,2,7,3,2,-1
32924343296,-1,-2,-2,-4,-4,-2,0,0
32924343296,0,2,3,1,0,1,1,1
32924355302,0,0,0,-3,-8,-1,-2,-1
32924355302,1,2,-8,-4,3,0,0,1
32924364388,-1,-1,-13,-10,2,1,0,-1
32924364388,-2,-6,-4,1,1,-1,-2,-1
32924379241,1,3,12,14,1,1,0,-1
32924379241,-2,0,-2,-4,-6,-3,-2,-2
32924380986,-1,1,6,3,0,0,1,0
32924380986,1,-1,-3,-5,0,-2,-1,-1
32924401655,1,-3,-12,-7,0,-2,-1,-2
32924401655,-1,-1,1,2,0,-3,-2,1
32924403313,-2,-1,2,3,-1,-1,-1,1
32924403313,-1,-1,1,-8,-4,-2,-1,-2
32924415912,2,1,-1,10,20,4,1,-2
32924415912,-3,-1,-1,-2,-3,-1,1,-2
32924424471,-1,-3,0,4,2,0,0,1
32924424471,0,1,4,-1,-7,-1,0,0
32924439353,1,0,-1,-1,-1,-3,0,0
32924439353,0,-1,1,-4,-3,0,0,-1
32924441027,1,-1,1,5,0,2,-1,-2
32924441027,-2,-1,-8,0,1,0,-1,0
32924461657,-2,-1,2,-1,-3,-1,-2,-3
32924461657,-1,-3,-17,-14,-1,-1,-1,-1
32924463337,-2,1,12,20,0,-2,-1,0
32924463337,2,0,-2,-6,0,2,0,1
32924484316,-3,-2,-10,-14,-7,-4,0,0
32924484316,0,1,28,20,4,0,0,0
32924485885,0,0,-3,-6,9,3,-2,-1
32924485885,-1,1,-1,3,5,3,1,-1
32924499081,-1,-2,-7,-4,-7,-1,0,1
32924499081,-1,1,-1,-8,-2,-2,-1,-1
32924505471,-3,-2,-1,-1,-3,-1,-1,0
32924505471,-1,-2,8,5,1,-2,-1,-1
32924521728,-2,-1,-11,-5,1,0,-1,-1
32924521728,0,-2,3,9,3,-1,-1,0
32924523350,-3,-3,-2,-14,-6,-1,1,-1
32924523350,0,1,11,8,-1,-4,-2,1
32924544445,1,-2,-13,-9,-4,-1,1,-1
32924544445,-2,-2,-6,-3,2,-2,0,-1
32924545906,1,0,0,-1,-1,0,1,0
32924545906,-1,0,1,1,-3,1,-2,0
32924559460,-1,0,3,6,2,-2,-1,-1
32924559460,1,1,1,1,-2,-2,-2,1
32924560896,0,1,0,-2,-3,-1,-1,0
32924560896,-1,-4,-7,-10,-6,-1,1,-1
32924581914,-1,-3,10,22,0,-1,-2,-1
32924581914,0,-3,-15,-7,1,-1,-1,-1
32924583367,0,1,8,1,-6,0,-1,0
32924583367,-1,1,0,3,4,-2,-2,-1
32924604440,-1,-4,-1,-4,-3,0,0,0
32924604440,-1,-1,-2,0,-4,-2,1,-1
32924605912,-1,1,-3,-3,1,-2,0,0
32924605912,0,-1,-1,-2,-3,0,1,-2
32924618693,-3,0,0,-2,1,-1,-2,0
32924618693,-3,-2,4,1,-1,0,-1,0
32924625481,-1,-1,-4,-1,0,-2,-2,-1
32924625481,1,-1,0,2,-2,0,0,1
32924649385,-1,2,4,-1,-1,1,1,2
32924649385,0,-2,-13,-3,6,2,0,-1
32924650865,1,0,4,9,4,-1,-2,-1
32924650865,0,-1,-7,-2,-1,-2,-1,-2
32924664357,1,-3,0,-7,-2,-3,-1,-1
32924664357,0,1,7,5,-6,-3,2,-2
32924665867,0,-1,2,-1,0,-1,1,-1
32924665867,-2,-1,1,4,4,-1,-2,0
32924678721,0,2,-1,0,0,2,1,-1
32924678721,-1,-1,-1,-8,-3,-1,-1,0
32924685537,1,-3,-9,-4,-4,-3,1,-2
32924685537,-1,0,14,-1,0,0,0,0
32924701909,0,2,-25,-2,0,1,-2,0
32924701909,0,0,12,4,0,2,-1,0
32924703379,-2,-1,2,-1,-1,-2,0,0
32924703379,-1,3,7,1,3,0,0,-2
32924724289,-1,-1,-7,-6,2,-4,-3,-2
32924724289,0,-1,-7,-1,-3,1,-1,-2
32924725820,1,-1,-7,0,-10,-2,-2,0
32924725820,0,-2,10,7,16,2,2,-1
32924738703,-1,-2,-5,-9,-1,1,1,0
32924738703,-2,-2,4,8,-4,-1,-1,2
32924745560,0,1,17,2,0,-1,0,-2
32924745560,0,-1,-19,-12,-5,-3,-3,0
32924761904,1,0,10,6,1,-1,0,-1
32924761904,1,0,-5,-5,-2,-2,-2,-1
32924763388,-3,-1,-4,0,0,2,0,0
32924763388,0,-2,0,1,-5,-3,0,-1
32924784332,0,-1,0,1,3,-1,0,0
32924784332,-1,-3,-9,-21,-5,-2,-3,-4
32924785848,1,3,19,29,5,0,0,0
32924785848,-4,-4,-30,-18,-3,2,0,-2
32924798730,0,0,8,0,-7,-1,0,-1
32924798730,-2,-1,4,2,1,-1,-1,1
32924805417,0,-3,-13,-11,1,-1,-1,-2
32924805417,-1,-2,3,2,-3,-4,-2,-2
32924821851,0,-2,3,3,-5,0,-1,-1
32924821851,-1,-1,-3,0,-1,-1,-1,0
32924823343,-2,-2,-6,-10,-1,2,0,-1
32924823343,0,0,3,2,-3,-1,0,0
32924844424,0,0,7,-4,-4,-1,-3,0
32924844424,1,-1,-3,-8,-2,0,-2,-1
32924845928,0,0,3,10,0,0,-2,1
32924845928,-1,-2,2,4,2,0,-2,0
32924858696,-2,-2,5,0,4,0,1,-2
32924858696,-1,1,1,-2,1,-1,2,-1
32924865517,-3,-2,-8,-9,-1,-2,1,-1
32924865517,0,0,-3,1,-2,0,-1,-1
32924881787,1,1,-1,2,0,0,-2,0
32924881787,1,-2,0,6,1,2,0,0
32924883374,0,-2,-8,-12,-11,-2,1,-2
32924883374,0,2,8,10,14,2,2,1
32924904355,-2,-2,-1,-2,-2,-1,-1,-1
32924904355,-2,0,6,-1,-3,-1,-1,-2
32924905878,1,-1,-12,-2,3,-1,0,1
32924905878,0,-2,8,3,-4,-1,-2,0
32924918494,0,-3,2,1,-2,-2,-1,-1
32924918494,1,3,-4,5,0,0,1,-1
32924926920,-1,-1,1,-6,-2,-1,-1,1
32924926920,1,-1,-4,-3,-3,-1,-1,-1
32924941904,-3,0,-10,0,-2,-3,-1,1
32924941904,-1,-2,5,-1,-4,0,0,-2
32924943418,-2,2,3,8,11,2,-3,-2
32924943418,1,-2,0,-2,-4,-1,-1,-1
32924964285,-1,-1,12,1,0,0,1,-1
32924964285,-2,-2,-11,-4,1,1,1,-1
32924965884,-1,2,11,2,-6,-1,-2,0
32924965884,0,-1,-5,-2,6,-1,-1,-1
32924978050,2,1,3,-2,-1,-1,1,-2
32924978050,0,2,4,3,2,0,-1,1
32924986982,-1,-2,-7,-8,-2,0,-1,-1
32924986982,-3,0,-2,-8,-8,-1,1,-2
32925001713,-2,0,-4,5,0,-1,0,1
32925001713,0,0,-6,3,-1,-3,-2,0
32925003347,0,-5,-4,-7,-3,-4,-1,0
32925003347,0,-2,-2,4,-3,-1,-1,0
32925024250,-1,-3,-1,-6,1,3,-2,0
32925024250,-2,0,3,3,5,2,-2,1
32925025876,1,-1,-4,-2,0,-2,-1,-1
32925025876,-1,-1,2,-6,-2,-1,-1,0
32925037919,-1,-1,-17,7,1,-2,-1,-1
32925037919,1,0,13,-8,-6,-2,-2,0
32925046954,0,-2,-18,4,5,2,0,-1
32925046954,0,-3,-9,-6,-3,-2,0,0
32925061697,1,0,-1,-1,-1,-1,1,-2
32925061697,-1,-2,2,2,-4,-2,-1,-2
32925063372,0,1,10,-1,-1,-2,-1,-1
32925063372,1,1,11,0,-1,1,-2,0
32925084265,1,0,-25,-7,-3,0,-1,-2
32925084265,0,0,8,3,-5,-2,0,0
32925085828,-1,-3,2,9,11,2,1,-2
32925085828,-1,2,14,6,-6,-3,-1,-1
32925097957,-2,-5,-9,-12,2,-1,-1,-2
32925097957,0,-2,-6,-6,1,1,-1,0
32925107686,0,-1,-5,-5,-4,-1,0,1
32925107686,-2,-1,4,4,0,1,0,-1
32925121764,-1,0,13,3,0,-4,0,-1
32925121764,0,1,-11,-5,1,-2,-2,0
32925123358,-3,1,4,-3,-3,-1,-2,-1
32925123358,-2,-1,-10,-4,13,0,1,-1
32925144423,-1,1,11,1,-6,1,-1,0
32925144423,-1,-3,-4,7,2,0,1,-1
32925145919,-1,-2,17,-2,-5,-4,-1,0
32925145919,2,-1,-38,-10,-1,1,1,1
32925157999,0,0,10,6,-1,-3,-2,0
32925157999,0,-3,-2,-7,1,-2,-1,0
32925167826,0,3,-1,2,-3,0,1,0
32925167826,0,-2,-5,-1,-4,0,-1,0
32925181834,2,-1,0,-5,0,-1,0,1
32925181834,-3,-1,-13,0,3,0,0,0
32925183477,-1,0,-2,-8,-4,-1,-1,-3
32925183477,-2,1,11,10,-1,-1,0,0
32925204321,-3,0,3,1,-2,-1,1,1
32925204321,-1,0,12,5,0,-2,-1,-1
32925205942,-1,-2,-23,-13,-3,-1,-1,0
32925205942,1,1,4,3,-3,-1,-1,-2
32925217973,1,-1,-3,-1,1,2,0,-2
32925217973,-3,-3,-3,-1,-2,-2,0,-2
32925226934,-1,-1,0,-5,4,2,1,-2
32925226934,-1,0,-2,1,-5,-3,-2,-2
32925241654,1,1,2,-2,3,1,0,0
32925241654,0,0,12,8,0,-2,1,1
32925248062,-1,-1,6,7,-3,-1,-2,0
32925248062,-1,-3,-4,-8,-2,-1,1,-1
32925264338,0,-2,-10,-9,-2,-1,-2,1
32925264338,1,1,-4,2,8,3,1,0
32925265921,1,-2,5,2,0,-2,-1,-1
32925265921,1,1,-5,0,0,1,0,-1
32925286209,-2,-1,-8,8,-1,-4,-3,-2
32925286209,-1,-1,-5,-5,-4,0,1,-1
32925286894,2,3,13,8,0,0,0,1
32925286894,-3,-1,-9,-5,-1,0,1,-2
32925301267,0,0,-2,-2,-2,0,1,-1
32925301267,0,-2,3,-7,-2,-3,-1,-1
32925301864,-1,-1,-4,-3,-1,-3,-1,1
32925301864,-1,-1,6,5,6,1,-1,2
32925323530,0,1,8,-3,0,-2,-3,1
32925323530,0,0,5,1,1,-2,-2,-2
32925324498,2,1,-1,-4,1,-2,0,-1
32925324498,0,-3,-6,-2,-3,0,-2,-2
32925346099,-3,-1,13,7,0,0,0,-3
32925346099,0,-2,-9,-3,0,-2,0,-2
32925346983,-3,-2,-6,-5,-5,1,1,-2
32925346983,-2,-1,5,-1,0,1,1,0
32925361195,0,4,4,11,2,0,-1,0
32925361195,0,-1,-7,1,-2,-2,-1,0
32925361899,0,-3,-2,-1,0,1,3,0
32925361899,0,-1,6,-5,-3,-1,-1,-1
32925383645,-1,-3,-3,-9,-1,0,0,0
32925383645,-1,-1,6,4,-1,1,0,0
32925384372,1,0,-9,0,-2,0,-2,-1
32925384372,1,-2,4,-2,-2,1,-1,1
32925406124,1,-1,7,5,-1,0,1,1
32925406124,0,0,-14,-9,-1,-2,-1,0
32925406887,-1,-1,10,6,2,-5,-4,-2
32925406887,-1,0,-13,2,-5,-4,-1,-3
32925421105,-2,0,-4,-30,0,-1,-1,-1
32925421105,-2,-3,11,39,-2,1,0,-2
32925421831,-1,2,16,-9,-1,0,-1,-1
32925421831,-1,-2,-15,-2,0,0,0,-2
32925443564,2,-1,-9,-7,-3,-1,-2,1
32925443564,0,-1,-2,-9,-4,0,-1,1
32925444354,0,-1,-4,11,6,2,0,2
32925444354,0,-2,6,-10,-4,-3,-3,0
32925466196,-1,1,4,-17,1,-1,0,-3
32925466196,2,0,-24,22,-4,-1,-2,1
32925467017,-3,3,9,17,3,-1,-1,-1
32925467017,-1,-1,-5,-17,3,1,2,0
32925481034,0,-2,-9,-4,0,3,1,1
32925481034,-1,1,12,-11,1,0,0,1
32925481925,0,-3,-11,-7,-1,-2,0,-2
32925481925,-1,1,-5,2,-4,-5,-2,1
32925503601,-1,-1,15,20,2,-3,-2,1
32925503601,-2,0,-1,-10,-5,0,1,-3
32925504355,0,-2,-14,-3,3,1,1,0
32925504355,-1,2,13,-6,5,3,0,-1
32925526134,-2,-4,-14,8,-4,0,0,-2
32925526134,-2,2,12,-5,3,3,-1,0
32925526895,-1,-2,-5,-5,-3,-1,2,-1
32925526895,1,0,26,10,-2,-1,1,0
32925541071,-1,0,-39,-6,-2,-2,-1,-1
32925541071,2,2,20,2,11,0,1,-1
32925541864,1,0,11,-6,-2,0,-1,-1
32925541864,0,-2,-13,2,0,-1,-2,-2
32925563658,-1,-1,8,6,-2,-1,0,-2
32925563658,-1,-4,-10,-13,-3,-1,1,-1
32925564529,1,-1,-2,-2,-3,-2,0,0
32925564529,-1,-1,4,-2,-6,-4,-3,0
32925586138,-1,-2,4,8,-2,-2,-2,0
32925586138,1,0,-9,-9,-3,-3,-2,0
32925587006,-1,0,4,7,0,-1,-2,-1
32925587006,-1,-1,-12,-7,-8,3,1,0
32925601167,-1,1,11,0,1,-1,0,-2
32925601167,-2,-1,-4,-7,2,0,-1,0
32925601838,-1,-1,-11,-2,-6,-3,-2,1
32925601838,-1,0,4,5,0,-1,0,-2
32925624410,1,1,5,10,9,0,-1,-2
32925624410,1,1,-12,-7,-4,-1,0,1
32925624438,-1,-1,3,2,4,1,0,-1
32925624438,-2,-1,-17,4,2,-2,-2,0
32925646048,-1,0,-4,-6,-1,-1,0,1
32925646048,-1,-2,4,-1,-5,-3,0,-2
32925646845,1,0,-4,-4,-6,0,-1,0
32925646845,0,-2,12,6,6,2,-2,1
32925661202,-1,-2,-4,-2,-7,2,2,0
32925661202,-3,3,3,-3,1,1,0,-1
32925662008,1,0,-3,6,1,0,1,-1
32925662008,-2,-2,3,-4,0,-3,1,-1
32925683733,-1,-1,-6,-1,-1,-3,-2,-1
32925683733,1,-2,-2,-6,1,-2,-2,-1
32925684420,-2,-1,7,-1,1,0,-3,-1
32925684420,2,2,-6,-2,-3,-2,-1,0
32925706818,0,0,0,2,-3,1,0,-1
32925706818,-1,-4,4,-8,-5,-1,0,-1
32925707701,-1,0,-14,0,0,-3,0,-1
32925707701,1,-1,4,3,0,0,1,-1
32925721221,0,-2,-5,-8,-2,0,-2,-1
32925721221,-1,3,17,15,-2,-1,-1,0
32925721863,-2,2,-4,-13,-2,-1,-2,-2
32925721863,-2,-3,-7,1,0,-1,-1,-2
32925743641,0,-2,13,-1,-2,-1,1,-2
32925743641,-1,-2,-12,-3,-3,2,0,1
32925744564,0,0,4,-1,2,3,0,0
32925744564,1,0,1,-6,0,2,-1,1
32925766928,0,0,1,1,0,0,1,-1
32925766928,-1,0,2,9,1,-3,0,0
32925767593,-2,-1,-17,-6,-3,-2,-1,-3
32925767593,-3,-1,8,5,-1,-1,0,-1
32925781232,-1,-2,-8,-11,-7,1,-2,0
32925781232,-2,-2,-3,-6,7,2,-1,1
32925782006,0,-1,4,4,1,0,0,-2
32925782006,0,1,-1,-2,-2,0,-1,-2
32925803628,-2,-2,0,5,7,0,0,1
32925803628,-1,-1,0,0,-3,-2,-2,-3
32925804527,-3,-4,-5,-8,-4,-1,0,0
32925804527,1,1,0,5,0,-1,1,0
32925826835,-1,-2,5,-6,-3,-2,-1,-1
32925826835,-3,-1,-7,4,-1,-3,-1,-3
32925827708,1,1,1,5,0,-1,-1,0
32925827708,0,1,2,-4,-4,-2,0,-2
32925841221,1,2,7,2,-1,-5,0,1
32925841221,0,-2,-4,-4,-1,-2,0,-1
32925841957,0,-3,0,-4,-1,0,0,-1
32925841957,-1,0,2,1,-3,0,-1,-1
32925863544,0,-2,-10,5,8,4,0,0
32925863544,0,-1,14,-7,-2,1,-1,-1
32925864358,-3,1,-14,2,-2,0,-1,-1
32925864358,-1,-2,12,9,-1,2,-2,1
32925886777,0,-1,-3,-3,-1,-1,-2,-1
32925886777,0,0,-1,-2,1,2,0,0
32925887745,0,-2,1,-6,-1,1,-1,-2
32925887745,-1,-2,-7,-6,0,-1,-2,0
32925901314,-2,-1,3,5,1,-1,1,0
32925901314,1,3,3,-2,0,-2,1,1
32925901889,-2,-5,4,-2,-1,-1,-1,1
32925901889,0,-1,-21,-4,0,-2,0,0
32925923706,1,0,-4,4,10,2,-1,0
32925923706,0,-2,-2,0,1,2,-2,-2
32925924442,1,-2,2,0,-3,0,-1,-2
32925924442,1,0,3,2,4,0,-1,-1
32925946996,-1,-1,-5,-13,-8,-1,1,0
32925946996,-2,-1,-4,8,-2,-3,0,-2
32925947607,-1,1,2,7,7,-2,0,1
32925947607,-4,1,9,3,-1,-1,-2,-3
32925961257,0,0,3,-1,-6,-1,0,-2
32925961257,0,0,3,0,0,-1,2,1
32925961927,-1,-1,-18,-6,-3,-1,0,-1
32925961927,1,-1,1,-3,0,-1,1,1
32925983724,1,1,0,3,-1,1,-1,0
32925983724,1,-2,-3,-4,-5,1,-2,-2
32925984415,1,0,9,2,-1,1,-1,-2
32925984415,0,0,0,-4,6,1,-2,-2
32926006807,-3,-1,-10,2,-5,-2,-1,-1
32926006807,0,-5,7,4,0,0,2,0
32926007546,0,0,-12,-13,-4,-2,-2,0
32926007546,-1,1,6,1,-1,-2,2,1
32926020477,0,0,1,-3,-2,-2,-2,-1
32926020477,-2,-1,-13,-2,2,-1,0,0
32926028609,1,0,16,8,-1,-1,-1,1
32926028609,0,-2,9,-8,-4,0,-2,-1
32926043634,-1,-3,-6,-3,-1,-3,-2,-2
32926043634,-1,1,-7,6,-1,-2,-3,0
32926044356,-2,-1,10,6,0,-1,2,0
32926044356,0,0,-23,-2,-3,-1,0,-1
32926066840,-1,-3,4,1,0,2,1,0
32926066840,-1,-1,-8,-8,2,-1,-3,0
32926067662,0,1,20,0,-3,-1,-1,-2
32926067662,-2,-2,9,3,-7,1,-1,-2
32926080567,0,0,8,9,3,-1,1,-1
32926080567,-1,1,-6,-4,-2,2,0,1
32926088813,0,-2,1,5,2,0,0,0
32926088813,-1,-1,-9,-11,-4,-2,-2,2
32926103668,0,-1,34,8,-1,0,-1,-1
32926103668,-2,-1,-36,0,1,-1,0,0
32926104504,-1,0,-5,-4,-3,-1,0,0
32926104504,0,0,-1,4,5,2,1,-1
32926126877,1,4,13,-3,0,0,-1,1
32926126877,0,-3,8,4,1,-1,0,-1
32926127692,-1,-2,-13,-7,-2,-2,-1,-2
32926127692,1,-1,-6,3,1,0,0,-1
32926140688,0,-2,1,4,2,-1,0,0
32926140688,0,-2,8,-9,-5,-2,-1,0
32926148804,-1,-1,-13,-1,-6,-1,0,0
32926148804,0,4,8,6,10,0,1,0
32926163758,0,-3,-9,-7,-2,-1,-1,0
32926163758,0,-1,-13,-5,2,-3,-1,-1
32926164502,-1,-2,-6,-4,-4,-2,-2,0
32926164502,0,-2,5,-2,-4,-2,0,1
32926186946,-3,0,-12,-4,1,0,1,-1
32926186946,0,0,2,18,1,1,1,-3
32926187614,3,4,13,-6,6,1,-1,0
32926187614,0,-1,-8,-5,1,-1,-1,-1
32926200605,-2,0,-5,2,1,1,-1,0
32926200605,-1,-2,12,-2,-6,-1,-2,-1
32926208790,-2,-1,-5,-1,1,0,-1,-1
32926208790,0,-1,6,3,-2,0,0,-1
32926223747,-1,0,-9,-6,-6,-2,-3,-2
32926223747,0,-2,-4,-1,10,0,-2,-1
32926224449,-2,0,-3,5,-2,0,0,-2
32926224449,0,-3,-3,-5,-1,1,0,0
32926246905,0,0,11,4,-1,-1,1,-1
32926246905,0,2,-3,-7,-6,-2,0,-2
32926247677,1,2,-3,1,3,1,-2,-1
32926247677,-1,-4,6,4,0,-1,-2,-2
32926260514,-2,-1,-7,-1,0,0,0,-2
32926260514,1,1,4,-8,-4,1,0,-2
32926268802,2,-1,-1,-3,-2,-1,0,1
32926268802,-2,-1,-5,-2,-5,-3,0,1
32926283810,-1,-3,4,5,-2,-1,-1,2
32926283810,-2,-1,7,-4,-1,0,0,-1
32926284470,-2,-1,8,5,-4,0,0,-2
32926284470,-2,-2,-18,-4,7,2,-2,0
32926314453,1,0,-6,-7,-3,1,-2,-1
32926314453,0,2,1,0,1,-3,-2,-1
32926315151,-1,0,-5,1,-5,-1,-2,0
32926315151,-1,0,9,7,6,-1,-2,-2
32926320629,0,-2,-4,0,2,-1,3,0
32926320629,-1,0,21,3,0,-1,-1,1
32926328800,-1,-5,-25,-13,6,0,-1,-3
32926328800,1,3,-2,-5,-6,0,2,2
32926343780,1,0,-7,-5,-1,2,-1,-1
32926343780,-1,0,0,0,-4,3,1,-1
32926344438,-1,1,7,0,6,1,0,1
32926344438,-2,1,-4,3,-4,1,-2,0
32926366946,-1,-1,2,1,3,-4,1,0
32926366946,1,0,-3,1,-1,0,0,0
32926367686,-1,-3,-2,-3,-2,-1,-1,0
32926367686,1,1,-1,-4,0,1,-1,-2
32926389407,-1,-1,-4,-3,-8,-1,-2,0
32926389407,-1,0,2,-4,2,2,0,0
32926390169,-1,-1,-13,-1,-2,-3,-3,-1
32926390169,-1,-3,-3,-2,0,0,-1,1
32926403774,-2,-2,-4,-8,2,1,-1,-3
32926403774,0,-1,1,4,-1,-1,0,0
32926404451,1,-1,3,3,-3,-3,0,-1
32926404451,0,-2,-2,-6,-6,-1,0,-2
32926426967,1,0,9,5,-2,-1,0,-1
32926426967,0,-3,-16,-6,2,3,-1,0
32926427666,1,3,16,9,0,1,-1,0
32926427666,-3,-4,-26,-10,-2,0,-1,-3
32926449448,0,2,2,-1,-2,-1,-1,0
32926449448,-1,1,-5,-3,-2,1,1,0
32926450154,-1,1,29,7,0,-2,0,0
32926450154,0,-1,3,8,10,-1,-1,-1
32926463773,-1,-1,-6,3,3,-1,0,0
32926463773,0,-1,-4,-2,3,1,0,-1
32926464473,-1,-1,-12,-12,-2,-2,-1,0
32926464473,0,-1,11,11,-2,-1,0,0
32926486855,-2,-1,3,0,-3,0,-3,0
32926486855,0,0,3,11,9,-2,0,-1
32926487737,-2,-3,-4,-6,-1,0,1,0
32926487737,-1,1,1,-8,-5,-1,-2,-1
32926509499,0,-4,-7,0,-2,-1,0,1
32926509499,-2,-1,-7,-2,-6,-1,-3,-2
32926510150,-2,-2,0,-3,-3,-1,1,0
32926510150,1,-2,1,0,4,-1,0,2
32926523766,-2,3,11,0,-4,0,-3,-2
32926523766,-1,-3,3,0,5,0,-2,0
32926524507,1,-2,6,3,2,3,-1,1
32926524507,-1,-1,2,8,-1,-1,-2,-2
32926546984,0,0,-4,-2,-1,-2,-1,0
32926546984,0,0,0,-3,-5,-1,2,1
32926547639,-2,-2,-6,4,-4,-2,-2,-2
32926547639,-1,1,10,2,-6,-1,-1,0
32926569369,-2,-5,-9,-10,-1,-1,1,-1
32926569369,-2,2,-7,-4,-3,-2,-1,0
32926570100,0,-1,-20,6,2,-1,-1,-1
32926570100,-2,0,7,-4,-5,0,-1,-1
32926583599,0,-2,-2,6,1,-1,-1,-1
32926583599,2,-4,14,-7,-1,0,0,0
32926584371,-1,1,-7,-2,0,1,2,-1
32926584371,0,-1,-11,-4,-2,2,0,0
32926606992,-1,0,-5,-5,2,-1,1,1
32926606992,-2,-4,-5,1,-1,-2,-1,-2
32926607663,0,0,10,1,-1,1,0,1
32926607663,-4,-2,3,5,-3,-3,-1,0
32926629269,1,2,-6,-2,2,0,2,1
32926629269,-2,0,4,-7,-3,-2,-1,0
32926630033,-1,-1,6,4,2,-1,-1,1
32926630033,-1,1,3,-1,-2,-1,-2,-2
32926643705,0,-1,-8,-4,-1,0,0,-1
32926643705,0,3,2,12,1,-1,-2,0
32926644467,1,-3,-2,1,-4,-3,-2,-1
32926644467,2,1,3,-21,1,-3,0,-2
32926666870,-1,-1,1,2,-2,-3,0,-2
32926666870,-1,-3,-5,0,1,-1,0,1
32926667585,-2,0,3,-2,-3,-1,0,-1
32926667585,0,0,11,11,0,-1,1,-1
32926689341,-2,-4,-27,-21,1,1,-2,-2
32926689341,-1,2,9,10,-4,1,0,0
32926690096,-3,-1,-3,10,3,1,-1,-2
32926690096,-1,0,5,32,0,-1,2,0
32926703723,0,2,-1,-31,-2,1,-3,-1
32926703723,0,-2,-3,24,-1,-2,-2,0
32926704542,1,-2,-32,-48,-7,0,-1,1
32926704542,-1,-4,-2,-8,9,2,1,-1
32926726931,-2,4,12,36,0,-3,-2,-1
32926726931,-1,-2,-11,-33,-4,-2,0,0
32926727801,0,1,7,43,5,1,-1,0
32926727801,0,2,7,25,-7,-3,-2,-1
32926749321,0,-4,7,47,-3,1,0,-1
32926749321,-1,2,20,-54,0,1,0,-2
32926750274,-3,-4,-36,-50,0,0,1,-1
32926750274,0,-4,-19,79,7,1,0,-2
32926763698,-1,2,20,-84,-16,-5,-3,-1
32926763698,1,0,-9,43,1,-1,-1,0
32926764417,3,1,22,-10,-2,1,-2,0
32926764417,2,10,-14,-24,3,1,0,0
32926786820,-3,-10,-4,33,3,-4,1,0
32926786820,-1,-3,11,4,-1,1,0,-1
32926787700,0,-2,0,-19,-1,-2,-2,-1
32926787700,-1,1,21,9,-3,-3,-3,-1
32926809518,0,4,-24,-29,0,0,0,1
32926809518,1,-10,-30,-25,2,0,-1,-1
32926810148,1,12,44,75,-2,-1,-2,0
32926810148,-1,-8,11,-25,-2,-1,-3,-2
32926823774,-3,-2,14,-7,11,4,-1,-1
32926823774,-4,-8,-19,-44,0,1,2,-2
32926824446,0,4,8,64,2,0,0,-1
32926824446,1,1,-17,-22,-5,0,1,0
32926847011,1,5,12,-27,-11,-1,-1,-2
32926847011,0,6,6,2,-4,-4,-3,-2
32926848469,-4,-14,-22,-25,-5,-2,0,2
32926848469,-2,-1,-1,-13,-2,-1,0,1
32926869939,-3,-7,-1,37,-1,-3,1,-1
32926869939,0,5,-1,-5,-1,0,-1,0
32926871456,0,3,9,3,-1,-1,0,-3
32926871456,-2,-6,-14,-18,-3,-1,-1,-1
32926883051,-1,1,-17,10,4,1,2,-1
32926883051,1,1,20,23,-3,-1,-1,0
32926892022,1,-2,-5,-15,3,0,1,0
32926892022,1,-2,-2,-9,-3,-2,0,-2
32926906939,1,0,-16,-1,4,-1,-2,-2
32926906939,-2,0,4,14,-5,0,-1,0
32926908513,-1,-3,-13,-21,-7,1,0,-2
32926908513,-1,0,-5,-6,2,-2,-2,1
32926929433,2,2,12,21,3,1,0,-1
32926929433,0,1,6,7,-6,-1,-1,-2
32926930931,1,-1,-17,-17,13,1,0,-1
32926930931,-1,-2,-10,-14,-3,2,1,-1
32926943183,-2,0,16,22,1,2,-1,0
32926943183,-1,-3,-32,-44,-2,-2,-2,1
32926952028,-1,8,45,25,-5,-1,-1,0
32926952028,0,3,20,-6,2,0,0,-1
32926966993,-1,-10,-24,-6,-2,0,1,-1
32926966993,0,4,22,27,0,-1,1,0
32926968511,-1,-2,-13,-20,-8,-4,0,-2
32926968511,-1,-3,0,6,7,0,-1,0
32926989501,1,4,3,25,-2,-2,0,-2
32926989501,-2,-2,-11,-46,2,1,-2,-1
32926991000,-1,-6,4,23,2,1,1,-1
32926991000,-1,-3,-5,-25,-10,-2,-2,-1
32927003773,0,-5,-6,-20,3,0,0,1
32927003773,1,4,23,51,3,-1,-1,0
32927011946,-2,1,-14,-47,4,-2,-1,-2
32927011946,-2,-2,-13,24,-8,-3,-1,0
32927026875,0,0,0,9,1,1,0,1
32927026875,0,-3,10,1,-5,-2,-1,-2
32927028496,1,-2,-3,-6,0,3,-2,-1
32927028496,1,3,9,-10,-2,0,-1,-1
32927049492,0,2,2,6,-1,-1,-1,-1
32927049492,-3,-11,-14,13,2,-2,0,0
32927050999,-2,-3,0,2,2,-3,-1,-2
32927050999,-1,1,-6,-8,-1,0,0,0
32927063004,-2,1,3,8,0,-2,-1,0
32927063004,-2,2,-14,-18,0,0,-2,0
32927072005,-1,-2,15,16,2,-2,-1,-2
32927072005,-2,-5,3,-4,-1,0,-1,-1
32927087064,0,4,32,-10,2,0,-2,2
32927087064,-1,-3,-25,34,0,-1,-1,0
32927088516,0,-3,1,-32,-6,-2,-2,-1
32927088516,1,0,1,5,-3,-1,-1,-1
32927109498,-1,-2,0,-6,5,3,2,1
32927109498,0,-1,9,19,2,0,-1,-1
32927110990,-1,0,-9,10,4,-1,-2,-1
32927110990,-2,-4,-8,-13,-6,-3,-1,-1
32927123118,-1,0,-5,0,-5,-5,-2,-2
32927123118,1,6,37,15,1,1,-3,0
32927131957,1,-2,-38,-14,-4,1,2,2
32927131957,1,-3,-12,-14,1,1,-1,-1
32927147036,1,-1,2,19,-10,0,-1,0
32927147036,1,-1,-10,-13,-2,3,2,0
32927148543,0,-1,16,15,10,0,1,0
32927148543,-1,2,8,-2,0,-2,0,0
32927169513,1,-5,-28,23,3,-1,-3,-1
32927169513,-3,-3,-8,-57,-3,-3,-2,-1
32927170989,0,-3,-7,-17,-7,-1,0,1
32927170989,1,6,13,40,1,1,2,0
32927183078,-1,-6,7,11,-6,-4,0,-2
32927183078,-1,2,-1,-19,0,0,0,-2
32927191984,-2,1,19,1,-3,-2,-1,-2
32927191984,-1,-1,-19,-4,1,1,-1,-1
32927206922,0,0,21,-7,-1,1,-2,-1
32927206922,0,-4,-21,7,2,3,1,-1
32927208463,-1,2,4,8,-3,0,1,1
32927208463,0,-2,2,0,-1,-1,1,-1
32927229536,-2,1,-12,-25,-4,-1,0,-2
32927229536,-1,-3,4,9,-2,-3,-2,-1
32927231007,-1,0,3,2,-3,-1,0,-1
32927231007,-2,0,3,-3,-4,-2,-1,-1
32927243101,-1,-2,-12,-15,19,1,1,-1
32927243101,-1,2,0,6,-2,-3,0,-3
32927252005,1,-5,-6,18,-4,1,-2,0
32927252005,-2,-5,0,-4,2,-1,-1,-1
32927266999,0,6,17,-55,-8,3,0,1
32927266999,0,0,-14,26,2,0,-1,0
32927268506,-3,0,-1,6,1,0,-3,1
32927268506,-1,0,-6,-8,3,-2,-1,0
32927289464,1,0,4,2,-3,-1,0,-1
32927289464,0,-1,2,-2,1,-3,0,0
32927291003,0,-3,8,0,-2,-1,-2,0
32927291003,2,-1,-3,4,0,0,0,0
32927311973,-1,-3,-8,0,1,-3,-1,-1
32927311973,1,-1,3,4,-2,0,0,-1
32927313494,0,-3,-13,6,1,-1,-2,-1
32927313494,-1,3,5,-33,-3,1,-1,0
32927327050,-1,0,-4,3,-1,-1,0,-1
32927327050,0,-1,18,5,-7,-3,-1,-2
32927328451,-1,3,-12,-14,6,1,2,-1
32927328451,-3,-3,-12,6,-2,-2,-1,-2
32927349402,-1,0,4,6,-4,-2,-1,-1
32927349402,-1,-2,-2,-5,-4,0,-2,-1
32927350996,0,3,5,5,-4,-1,0,-2
32927350996,2,0,9,5,-1,-1,-1,0
32927371872,-2,-2,-18,-1,-2,-2,-3,-2
32927371872,-1,-1,-6,1,-3,1,-3,-1
32927373443,1,1,0,6,9,1,0,1
32927373443,-2,-4,-22,30,2,-1,1,0
32927387017,-3,0,14,-5,-4,0,0,0
32927387017,-1,3,2,-14,0,0,1,-1
32927388512,0,-1,-6,-2,-4,0,-1,0
32927388512,1,1,5,1,3,-1,0,0
32927409558,-1,-2,2,15,-3,-2,0,-1
32927409558,0,1,-8,1,13,1,0,-1
32927411017,-1,-1,10,0,-3,-6,-2,-2
32927411017,-3,-2,6,-4,-3,0,-2,1
32927431955,0,-2,-2,15,-1,-1,-1,-1
32927431955,-1,-1,6,-2,-2,-2,0,1
32927433531,-1,-4,-8,12,-6,-2,0,-1
32927433531,3,2,-1,-17,9,1,1,-1
32927447043,-4,-2,-11,-17,0,-1,0,-1
32927447043,-1,-2,-7,31,-1,1,0,0
32927448535,-1,2,5,-40,-5,-2,-2,-3
32927448535,-3,0,4,12,-7,-1,0,-1
32927469966,4,1,-7,-1,1,2,-1,1
32927469966,1,4,17,-3,0,-1,-1,-1
32927471442,0,1,3,12,-1,1,-3,-2
32927471442,1,2,-13,-23,-1,0,-2,-2
32927492053,-2,-3,17,11,-3,-2,-1,-2
32927492053,-1,-1,-10,6,0,-1,-1,2
32927493516,-1,-3,17,-8,-4,0,3,-1
32927493516,-2,0,-4,0,2,-1,0,-2
32927506317,2,0,-8,-7,3,0,-1,-1
32927506317,-1,-3,3,-11,-6,-2,-1,1
32927513047,2,0,15,4,-1,-2,-1,1
32927513047,-2,-3,-28,-1,-2,-1,-3,0
32927529499,-1,2,-8,0,-2,-2,0,0
32927529499,0,6,21,2,0,-1,-1,-2
32927531070,-1,-2,-12,-7,2,-1,-1,-2
32927531070,-1,-2,16,15,-2,-2,-1,0
32927552003,0,1,1,-1,1,0,0,0
32927552003,1,-1,-12,-5,-2,1,0,0
32927553473,0,-2,-24,0,0,0,1,-2
32927553473,-1,-1,5,-6,-1,-1,0,-1
32927566452,-3,-2,6,12,0,2,-1,0
32927566452,-1,-3,6,-15,2,1,1,-2
32927573203,-1,0,-13,-3,-1,1,-1,0
32927573203,0,2,21,9,-4,-1,-1,0
32927589402,0,-7,0,-1,2,-2,-1,0
32927589402,-2,-1,-12,-5,-1,-3,-2,-2
32927590908,1,4,2,9,0,-1,0,1
32927590908,-2,-2,-19,-13,-2,0,-1,-1
32927612053,0,1,10,-5,-1,-1,-1,0
32927612053,-1,-2,-25,-2,1,0,-1,1
32927613500,0,-3,8,0,-5,-2,-1,-2
32927613500,1,0,7,9,5,1,1,0
32927626336,-1,0,12,-3,-4,-1,0,-1
32927626336,-3,-5,-14,-7,-7,-4,0,-2
32927633254,-2,-1,-11,-2,1,-1,-1,0
32927633254,1,0,7,7,-2,-2,-2,0
32927649524,-1,1,-7,-5,-1,-1,-2,-1
32927649524,-1,-3,12,3,-5,-1,0,-1
32927650984,1,-1,-2,-4,0,3,1,1
32927650984,-1,1,4,4,9,2,0,-2
32927672077,1,4,-15,-7,3,1,0,0
32927672077,1,-1,6,4,1,-1,-1,-1
32927673492,-2,-5,-6,-14,-4,-1,-1,-1
32927673492,-2,-1,4,5,-2,-2,-1,1
32927686380,3,4,-2,-3,-4,-3,-1,1
32927686380,0,-1,-1,-7,0,-1,0,0
32927693158,-1,-2,-2,8,1,0,-2,-1
32927693158,0,1,18,-2,-6,-1,-2,0
32927709485,0,-1,-32,-15,0,1,-2,-2
32927709485,0,-2,-6,10,4,0,1,0
32927711009,-1,1,8,7,-2,-3,0,0
32927711009,1,-1,-2,-2,2,-1,1,0
32927732037,-1,-1,21,12,-2,-2,0,-1
32927732037,1,2,1,-5,2,-1,-2,1
32927733568,2,-3,-5,1,4,-3,-1,0
32927733568,-1,-1,-6,-2,-7,-5,-2,-1
32927746307,0,-4,0,3,2,2,0,-1
32927746307,-1,1,4,6,4,3,-2,1
32927753142,-3,-2,-21,-11,-7,1,0,-2
32927753142,1,3,11,-1,5,2,1,-1
32927769463,0,-5,-19,-5,2,-1,-1,-1
32927769463,-1,1,-8,0,-5,-1,-1,0
32927771015,0,4,12,-8,-5,-2,0,0
32927771015,-2,0,3,15,1,-1,1,-2
32927792049,-3,-3,8,-3,0,-1,0,0
32927792049,2,-1,11,5,-3,0,-1,1
32927793687,-3,-3,-10,-1,2,1,0,0
32927793687,-2,0,-18,-9,-6,0,-2,-3
32927805508,0,2,0,0,3,1,-1,0
32927805508,-1,-2,6,3,-4,-1,-1,-2
32927814590,3,3,-16,0,1,-2,-1,0
32927814590,0,-1,5,-3,-1,-1,1,-1
32927829551,-4,-5,5,13,-7,-3,-2,-2
32927829551,0,2,4,-13,1,1,1,0
32927830922,0,1,-1,2,2,0,-1,-1
32927830922,-2,-5,-5,2,-4,-2,0,0
32927851849,-1,1,0,-2,0,-2,0,0
32927851849,0,-2,-12,2,-2,-2,-1,-3
32927853508,-2,2,25,9,-2,-1,-1,0
32927853508,0,-5,-20,-16,-2,-2,-3,-2
32927865714,0,0,10,5,1,2,0,0
32927865714,-3,-5,-30,-6,-1,-1,-2,-1
32927874594,-2,2,-2,-4,-5,-4,-3,1
32927874594,0,-3,3,1,1,-1,-2,0
32927889560,-2,2,-3,3,-2,0,0,-1
32927889560,-1,3,15,-14,-1,0,-1,-2
32927891023,-1,-1,-1,16,1,1,-1,-2
32927891023,1,0,0,-2,0,-1,0,0
32927911960,-1,-2,-13,-5,-3,-2,0,-2
32927911960,1,0,4,5,-1,-3,-1,0
32927913521,-1,0,2,7,2,0,0,-1
32927913521,1,-2,-7,-6,1,1,-1,0
32927925526,0,9,26,-2,-3,-1,-3,1
32927925526,-1,-20,-17,-1,-1,-1,1,0
32927934563,1,2,31,10,2,0,-2,-2
32927934563,-2,-4,-6,-4,-1,2,0,-2
32927949452,-1,0,-8,-9,-1,0,-1,-1
32927949452,-1,5,7,7,-3,-2,0,-1
32927950980,1,-4,2,-4,0,-1,0,0
32927950980,0,0,-10,-7,0,-2,0,0
32927971892,-1,-5,8,2,-1,-4,1,1
32927971892,-1,2,11,5,0,0,-1,-1
32927973459,0,-3,-17,-8,-1,2,0,1
32927973459,-1,4,9,4,4,2,0,1
32927986099,-2,-4,-20,-3,-1,0,-1,-1
32927986099,1,3,11,-3,-2,-1,0,0
32927994510,-2,-1,-36,0,-4,-1,-1,-3
32927994510,-2,3,17,1,2,0,0,1
32928009305,0,0,-4,3,-2,0,-1,-1
32928009305,1,3,13,-1,1,0,-1,0
32928010936,1,-4,-31,-18,0,1,0,-1
32928010936,-1,-5,-4,3,-6,0,-1,-1
32928032711,0,1,9,14,2,-2,1,-3
32928032711,-3,0,-2,0,2,-3,0,1
32928034253,0,0,11,1,-2,-2,-1,0
32928034253,0,-1,-4,-10,-2,-1,-1,-2
32928045459,0,0,-8,-7,-2,2,-1,-1
32928045459,1,-3,-19,-3,2,-1,0,1
32928054548,1,1,28,1,-2,-3,-2,0
32928054548,0,0,-10,10,6,0,-1,0
32928069399,-2,-1,-1,-7,-1,0,0,0
32928069399,-3,0,3,4,2,1,0,-2
32928070926,-1,-1,5,1,1,-1,2,0
32928070926,-1,1,-1,-2,-3,-3,-1,-2
32928091951,0,-1,7,0,-3,-4,-2,2
32928091951,-1,-2,-6,-8,-2,0,0,-1
32928093518,0,3,16,0,1,0,-1,-1
32928093518,-1,-1,-9,-3,-4,-2,1,0
32928105486,0,-2,-12,-8,-2,-2,1,0
32928105486,-1,3,16,5,2,1,-1,-1
32928114617,-1,-3,-5,-7,2,-2,-1,0
32928114617,-1,0,5,1,-5,-1,-2,0
32928129441,1,-1,10,11,14,3,0,0
32928129441,-1,2,-15,-1,3,2,-1,0
32928131043,-2,-1,12,3,0,0,0,-1
32928131043,0,-3,-6,1,-7,-2,-2,-1
32928152081,-3,-6,-9,-18,-6,-4,-2,-2
32928152081,2,-1,9,6,-1,-2,0,-3
32928153539,-2,-1,-11,-6,-1,-1,-1,0
32928153539,-1,0,6,-8,-1,0,1,-1
32928165533,0,-5,-5,9,-4,1,-3,1
32928165533,-2,-1,3,-10,-2,-2,-2,0
32928174571,-1,0,6,12,-4,-1,1,1
32928174571,-2,1,5,9,2,-1,-1,0
32928189452,-2,1,-4,-9,-3,0,-1,-2
32928189452,0,-1,-6,-1,-2,0,1,1
32928191111,-1,1,0,2,2,-1,-1,0
32928191111,0,0,2,-1,1,0,0,0
32928212007,-1,1,-5,-2,-6,-2,-1,0
32928212007,-2,-1,6,5,13,1,0,0
32928213512,-1,-1,-21,-3,-2,-1,-1,-3
32928213512,-1,-5,16,-1,-3,0,-2,-1
32928225736,1,0,-1,4,2,1,1,1
32928225736,0,3,11,-2,-6,-1,-1,-1
32928234594,0,-2,0,-5,-2,2,1,0
32928234594,-2,-2,-3,-1,1,-1,-1,0
32928249355,2,3,-9,1,5,2,0,-1
32928249355,-3,1,3,2,-3,-1,-1,-1
32928255729,-1,-2,16,-5,-1,0,2,-2
32928255729,-2,-3,-6,0,-4,-3,0,-1
32928271921,0,-2,4,-2,-4,-2,-1,-1
32928271921,0,-4,-32,5,-4,-2,1,0
32928273555,0,0,-11,-13,5,0,-1,0
32928273555,0,1,9,-1,-1,-1,-2,-1
32928301895,0,-1,-3,0,-2,-2,-1,0
32928301895,1,1,-10,-8,-9,-2,-1,1
32928303490,0,-3,4,3,-1,-1,0,0
32928303490,1,1,-2,5,-2,-1,-2,0
32928309364,1,3,2,-27,-1,-3,-1,0
32928309364,0,1,-3,24,-7,1,-3,-4
32928310911,-3,-1,7,-12,-3,-3,-2,-1
32928310911,0,2,-1,15,-2,0,-1,-3
32928331970,-4,0,-1,16,0,0,0,0
32928331970,-3,-2,-4,-26,2,0,1,1
32928333490,0,-5,2,41,-2,-1,0,1
32928333490,1,8,0,-5,12,0,-1,0
32928354449,-1,-3,8,-78,-4,-2,-2,-1
32928354449,1,3,17,96,12,1,-1,0
32928355934,1,-1,-9,-19,-3,-1,-1,0
32928355934,-3,-1,10,50,-2,-1,0,0
32928369379,-1,0,-3,-63,-3,1,0,-1
32928369379,-2,-5,17,-8,-1,0,0,-1
32928370961,-1,-3,-22,-40,2,-1,-1,-3
32928370961,2,3,16,82,-3,-5,-2,0
32928391914,0,-1,-8,16,-2,-2,2,-1
32928391914,1,-1,8,-14,-2,0,1,0
32928393542,-3,0,-4,-23,-2,-1,-2,-3
32928393542,0,-2,-3,-47,-1,1,-1,0
32928414531,-1,-2,9,47,4,0,0,0
32928414531,2,1,2,-34,-8,-2,-4,0
32928415925,1,2,-11,6,-2,0,-1,2
32928415925,0,12,10,-37,-2,0,0,1
32928428928,-3,-19,-51,27,-3,-1,1,-1
32928428928,-2,-1,-2,-10,2,-1,-2,0
32928435605,0,-2,1,4,-1,1,-1,0
32928435605,-1,0,-11,-12,-4,2,2,0
32928452189,0,2,-2,3,-1,-2,-1,1
32928452189,-1,1,-4,2,11,2,1,1
32928453596,-1,-1,-13,11,-1,-1,-1,1
32928453596,1,2,10,-33,-3,-2,1,-1
32928474498,-1,0,18,21,4,1,-1,0
32928474498,-1,-3,0,10,-5,-1,1,-1
32928476039,-1,1,13,4,2,0,-1,-4
32928476039,-1,-5,-4,-5,0,-2,-1,-1
32928489385,-1,5,4,-6,-1,-1,-1,-1
32928489385,-1,-1,-3,-17,1,-2,-1,-1
32928495590,0,0,0,34,-2,3,0,-1
32928495590,0,-7,-29,-46,0,0,-4,-2
32928511909,0,5,23,43,1,-2,-1,1
32928511909,-2,-2,-21,-26,-6,-1,-1,-2
32928513531,0,2,6,7,-2,-3,-1,-1
32928513531,0,-7,-30,-29,-1,-1,1,-1
32928534527,0,2,19,8,-5,1,-4,0
32928534527,0,3,-1,11,7,4,0,0
32928536207,-1,-5,3,9,-1,-2,-2,-2
32928536207,-1,-5,11,3,-1,-2,-2,-2
32928548837,1,2,-5,-18,-1,0,-1,0
32928548837,1,-2,-5,1,-5,-2,0,2
32928555593,-1,-2,-15,-14,1,0,1,2
32928555593,0,2,12,14,0,-2,-1,1
32928571010,-2,-4,2,6,2,-2,-1,-2
32928571010,1,-1,-24,-11,1,-1,0,0
32928579616,0,2,11,-7,0,-1,-1,-1
32928579616,-2,-3,-9,9,-4,1,-1,0
32928594522,-1,-3,-6,8,7,2,0,-1
32928594522,0,1,5,-9,-3,-3,-2,-3
32928596062,0,1,4,-6,0,1,0,0
32928596062,1,-1,-9,6,-3,0,2,1
32928608921,-1,1,6,-3,-2,-2,-1,-1
32928608921,-1,-1,5,-5,-3,-2,0,1
32928615733,-2,-2,-2,-2,1,-1,-3,0
32928615733,-2,-1,1,8,3,1,-2,-1
32928632122,-1,-2,-2,-7,-4,-3,0,-2
32928632122,-1,-1,-2,-2,0,1,1,-2
32928633629,0,2,1,4,-7,0,-1,0
32928633629,-2,-2,4,4,4,-2,-4,-2
32928654549,1,2,-5,-14,-1,0,3,2
32928654549,-1,-2,-3,5,-3,-3,-2,-2
32928656053,1,0,11,6,0,0,1,-1
32928656053,-1,1,-4,1,-4,-1,-1,-2
32928668831,-3,-4,-5,-4,-5,1,-3,-4
32928668831,2,1,-4,-7,-1,1,-2,-1
32928675835,-1,-2,-13,-13,-6,-2,0,1
32928675835,0,-3,30,11,3,2,0,-1
32928691922,1,3,0,-1,-1,-3,-3,-1
32928691922,-1,0,2,-2,-5,-1,-1,2
32928693488,2,2,15,10,9,1,-1,1
32928693488,-2,-4,-2,10,5,2,0,-2
32928714437,-1,2,-11,-8,-3,-3,-1,-1
32928714437,-2,-1,-9,-4,5,0,-2,-1
32928716050,0,2,14,2,0,-4,-2,-2
32928716050,-1,0,-7,-7,-3,-4,0,1
32928729003,0,-2,-1,2,-2,0,0,0
32928729003,-1,-2,5,3,8,-1,1,1
32928735478,0,0,-6,17,9,1,2,-1
32928735478,0,-1,-4,-7,-5,-3,1,0
32928751966,-1,1,-8,-4,1,1,-1,0
32928751966,2,-1,9,6,-8,0,2,0
32928753585,-4,-4,3,-12,-5,-1,-2,-1
32928753585,-3,0,-16,7,-1,0,-1,1
32928774400,-1,0,18,7,2,0,-2,-1
32928774400,-1,2,-19,-2,3,1,-2,-1
32928776030,-2,-5,15,-11,-1,1,0,-2
32928776030,0,1,-6,-28,-7,1,-2,-2
32928788140,-1,-2,-3,36,-7,-3,-2,-2
32928788140,1,3,2,19,15,5,3,2
32928797258,-1,-3,4,-14,-8,-1,1,1
32928797258,1,1,-25,-11,6,1,1,-1
32928811716,-1,0,5,9,-8,0,-3,-3
32928811716,0,-1,7,27,-6,-2,-1,-2
32928818065,1,1,0,13,7,2,1,1
32928818065,-3,-6,-11,-52,-4,-2,-3,-2
32928834410,0,0,-8,-5,0,-1,2,2
32928834410,-1,0,6,-5,-8,-4,-2,-2
32928836028,-2,-2,-4,7,-3,-1,-1,0
32928836028,-1,6,11,13,-2,2,1,-1
32928848069,1,0,-14,32,4,-2,1,1
32928848069,-1,-2,8,-47,-3,-2,-2,0
32928857043,2,2,1,0,0,-2,0,-1
32928857043,-1,0,-10,6,-1,-2,-1,1
32928871869,-1,0,1,13,1,1,0,-1
32928871869,-3,-5,4,-3,-8,-1,1,-1
32928873492,-2,-3,-10,-16,1,-1,-1,-3
32928873492,0,-1,22,31,-5,-3,-1,-3
32928894434,3,4,3,-43,1,2,2,1
32928894434,-1,-2,1,27,-4,-5,-3,-2
32928896525,-1,2,-5,-5,2,2,0,1
32928896525,0,-2,7,7,-3,-2,1,0
32928908083,-3,1,2,-16,3,1,-1,-1
32928908083,-4,-2,13,-3,-3,-3,-3,-2
32928917078,0,-1,-29,7,-4,-2,-1,0
32928917078,-2,-2,0,-53,1,0,1,0
32928931895,0,0,-1,63,1,0,-1,0
32928931895,-1,-1,-6,-17,-3,1,0,-1
32928933506,-1,-2,15,-2,-2,0,0,-1
32928933506,-1,-4,-15,-5,2,0,-1,0
32928954564,0,-1,-1,-20,-3,-1,-3,-1
32928954564,-1,-4,-28,-5,-4,-3,-1,-2
32928956220,1,5,-2,-1,-5,-4,-2,-1
32928956220,-2,-2,3,13,-1,-3,-4,-1
32928968047,-1,-1,15,-15,-5,0,-2,0
32928968047,0,2,-3,19,3,-1,0,-3
32928977065,-2,-1,2,-12,-1,1,0,-1
32928977065,-1,0,-4,15,1,0,1,1
32928993582,0,-2,-1,-9,0,0,1,1
32928993582,-1,-1,6,-12,1,2,0,0
32928994722,-1,3,-11,-6,-5,-3,-3,-1
32928994722,0,-1,-5,12,-4,-1,0,0
32929014425,1,-3,9,-45,18,-1,1,0
32929014425,-2,-3,12,43,-5,-3,-2,-2
32929016096,0,-1,7,1,-2,-1,-1,-2
32929016096,1,-1,0,14,-1,0,0,-1
32929028465,-2,-1,-5,-19,-4,0,-2,-1
32929028465,-1,-2,-8,-15,2,0,-1,1
32929037063,-2,-1,-2,4,1,2,-2,0
32929037063,-1,0,12,10,3,-2,-2,-1
32929051984,-1,-2,-13,-2,-8,0,-2,2
32929051984,1,2,-1,-14,-1,0,2,1
32929053602,-1,-1,-1,10,3,0,-2,0
32929053602,0,3,3,-7,-3,-1,1,0
32929074408,-5,-6,7,18,-2,-2,-2,-3
32929074408,1,2,-3,-17,-5,-2,-2,0
32929076007,-1,0,3,-3,2,1,1,1
32929076007,-2,-3,5,0,1,0,0,-1
32929090062,0,-1,-8,2,-2,-1,-2,-2
32929090062,0,-1,-7,-8,-1,0,0,1
32929097094,2,-2,-10,-6,0,-3,0,-1
32929097094,-1,3,22,5,-4,0,-3,-2
32929112000,1,-1,2,0,1,0,1,0
32929112000,-2,-3,3,3,0,0,-1,-1
32929113621,0,2,0,2,-2,0,-2,-1
32929113621,-2,-3,-4,-20,-6,-1,-2,1
32929134443,1,-2,-17,-30,-2,0,-2,1
32929134443,0,1,0,12,-2,-2,-1,-1
32929136027,-2,-6,-6,-4,-3,-2,1,-2
32929136027,2,0,6,51,10,0,1,0
32929148139,0,2,-1,0,-1,-1,0,-1
32929148139,1,-1,-1,-8,2,-1,0,-1
32929157163,-1,0,3,-1,-2,-3,-1,-1
32929157163,-1,-3,-1,-3,2,0,-1,-1
32929171914,0,1,-21,4,-4,-3,1,1
32929171914,-2,0,20,-3,-2,0,0,0
32929173502,-3,-1,-24,-5,1,0,0,0
32929173502,0,-1,-3,-18,-3,1,-1,-1
32929194557,-1,-1,9,14,1,-2,1,-3
32929194557,-1,1,5,-1,4,3,-2,-2
32929196176,-2,0,10,26,-1,0,-1,1
32929196176,0,-1,-9,-40,2,1,-1,1
32929217007,2,0,-18,39,-4,0,0,1
32929217007,-1,4,18,-16,-4,0,-1,2
32929218573,-1,0,15,-9,-1,-2,1,-1
32929218573,0,-1,-21,-2,-5,-2,-2,0
32929231974,0,-4,-3,4,2,0,-1,-1
32929231974,-1,-4,-19,-6,-2,0,-2,0
32929233551,2,0,2,-2,0,3,-1,1
32929233551,-1,1,11,8,-4,-2,2,-2
32929254534,-1,0,-2,-6,5,-1,-1,-1
32929254534,1,-6,-7,12,4,-1,2,0
32929257709,-1,-6,-16,-15,-2,-2,-2,1
32929257709,0,2,20,-16,0,0,1,0
32929277034,-2,1,0,17,4,-2,-1,-1
32929277034,0,-1,-8,-12,-2,-2,0,-1
32929278597,-1,0,5,2,0,-1,-1,1
32929278597,0,-2,-14,7,1,-3,-2,-1
32929292051,0,2,16,-30,-5,0,-1,-1
32929292051,0,-3,-32,37,-2,-2,-1,-3
32929294523,-1,2,11,-34,-1,-2,0,-1
32929294523,0,0,11,15,0,0,0,1
32929314488,-1,-4,-10,-10,-5,-1,-1,2
32929314488,-2,0,9,-7,1,1,0,-2
32929316080,0,-1,1,13,-1,3,0,-2
32929316080,2,16,-19,-1,-1,-1,-1,-1
32929336977,-3,-16,21,4,5,2,1,0
32929336977,0,-2,-51,-44,-5,-2,-2,-1
32929338556,1,-1,44,26,1,1,-1,-2
32929338556,-2,0,2,3,1,0,-1,-1
32929351980,0,6,9,14,-2,-1,0,0
32929351980,0,-2,-4,-25,-1,1,0,1
32929353599,-1,0,-18,3,0,0,-1,-2
32929353599,-2,-5,-16,4,-1,0,-1,-3
32929374508,0,3,20,7,-5,0,0,0
32929374508,-1,0,30,15,0,-2,0,-1
32929376061,0,5,-32,-6,-1,0,-1,0
32929376061,-4,-9,-17,-2,-1,-2,0,-2
32929397052,-2,0,4,-15,1,-1,-3,-1
32929397052,-1,3,9,72,2,-1,-2,-1
32929399012,0,-5,9,-78,-3,-1,0,0
32929399012,-1,-5,3,12,0,-1,0,1
32929411343,3,-1,-19,1,-2,-1,0,0
32929411343,-1,0,13,-6,0,-2,-1,-1
32929418083,-1,0,-10,13,0,1,0,-2
32929418083,0,-1,7,2,-1,1,-1,0
32929434459,-1,2,4,-5,3,-3,1,-2
32929434459,0,1,-7,-4,-6,-1,-2,-1
32929436035,1,-1,-8,4,0,-4,0,-1
32929436035,0,0,13,-8,-3,-2,-1,-1
32929458737,0,-2,-1,3,-1,0,-1,-2
32929458737,0,-1,-3,-18,-2,-1,-3,0
32929458785,-1,-2,-3,14,-1,-1,-3,0
32929458785,2,-1,5,9,3,3,-1,0
32929471275,-4,0,1,-9,-7,-1,1,1
32929471275,0,-2,4,-1,7,2,3,3
32929478162,-3,1,11,5,-3,-2,-1,-1
32929478162,-2,-2,-3,12,1,-3,-1,-1
32929494647,0,0,-11,-20,-3,0,0,-3
32929494647,1,0,2,-10,-2,-1,-1,-1
32929496175,0,1,4,44,12,1,1,-1
32929496175,-1,-1,-6,-37,-1,-1,-2,1
32929516959,-2,-2,-4,-1,0,-2,0,0
32929516959,-2,0,7,-1,-4,0,-1,-1
32929518626,0,-4,0,6,-4,0,0,1
32929518626,1,4,-4,6,3,0,-3,1
32929531325,-1,-2,-3,-4,1,2,1,-2
32929531325,0,-2,-2,-6,-2,-1,-2,-2
32929538114,-1,1,13,1,6,0,-1,0
32929538114,-1,-2,-14,0,2,-1,0,0
32929554542,-1,4,0,-1,-9,-3,0,0
32929554542,0,-5,4,-9,-2,0,-1,1
32929556170,0,3,-5,9,9,-1,0,-2
32929556170,-4,-5,2,-11,-9,-4,0,-2
32929577039,2,4,-1,11,-1,0,-1,1
32929577039,-1,-3,-8,-4,0,0,-2,-1
32929578729,-1,-5,-4,-13,-1,1,0,0
32929578729,1,1,0,3,0,1,1,0
32929599501,2,-2,-11,-4,-1,2,0,0
32929599501,-3,0,0,-9,-9,-4,-3,-3
32929601066,1,3,-5,2,4,2,1,0
32929601066,1,-3,3,22,2,-1,-1,0
32929614503,-1,1,2,-8,-2,-3,-3,-1
32929614503,-2,1,7,3,-3,-1,1,2
32929616077,-3,-3,3,-22,-8,-3,-1,0
32929616077,0,1,-29,7,1,-2,-2,-1
32929636995,0,0,14,-15,-8,-3,-2,-1
32929636995,-1,-3,-1,-8,-2,-4,0,0
32929638671,1,-4,-10,7,-1,1,0,1
32929638671,-1,2,20,-4,-2,0,1,0
32929651316,-2,-2,2,-5,3,1,-5,-2
32929651316,1,4,-8,-7,0,1,0,-1
32929658120,2,1,22,66,-7,-3,-2,0
32929658120,-1,-3,-20,-54,4,1,0,-1
32929674559,-1,-2,-8,25,-3,0,0,-1
32929674559,1,3,12,7,6,1,-1,0
32929676486,-2,0,-5,5,1,-1,1,-1
32929676486,-1,0,11,-10,-4,-2,-3,0
32929697060,-4,-2,-2,-12,6,1,-1,0
32929697060,2,-4,-26,0,3,5,3,2
32929698625,-1,3,24,0,-5,-5,-2,-3
32929698625,-3,2,19,25,0,1,0,-3
32929710640,0,1,14,-19,0,1,2,1
32929710640,-1,-4,-26,22,2,0,-1,1
32929719591,-1,-3,2,-10,-6,-2,-2,-1
32929719591,0,-3,-16,-19,1,-1,3,-1
32929734501,2,1,-14,17,4,-2,0,1
32929734501,1,-1,35,7,6,2,-2,-1
32929736076,-2,-3,-12,-21,-4,-2,-1,1
32929736076,-1,1,6,7,-3,-2,-1,-2
32929756980,-1,-2,-4,22,2,-1,0,-1
32929756980,-2,0,-10,-15,-5,-2,-1,-1
32929758651,1,-1,-13,-22,-3,-1,-1,-1
32929758651,2,-2,13,18,-2,2,0,0
32929770776,0,1,-5,1,7,-1,-3,-1
32929770776,-1,3,13,-18,-5,-1,-1,-1
32929780225,0,-3,-17,2,0,-1,-3,0
32929780225,-1,-2,0,0,0,-1,-1,-1
32929794520,-1,-2,4,-5,-5,-1,-1,-2
32929794520,1,2,0,9,2,-2,0,1
32929796099,-2,2,5,0,2,1,0,0
32929796099,-1,1,2,-2,-1,0,1,2
32929816994,-1,-5,-8,-13,-3,-3,0,-1
32929816994,0,-2,0,6,2,-1,1,0
32929818585,-1,-2,-20,-12,-4,-3,-3,0
32929818585,0,1,1,-2,-8,-2,-2,-2
32929830633,1,3,24,12,6,2,1,-1
32929830633,0,0,-1,1,-1,0,0,-3
32929839797,-1,-4,-17,-12,-2,0,-2,-2
32929839797,1,-3,4,6,-2,0,-1,-1
32929854502,0,-1,1,4,-3,1,-1,2
32929854502,-1,-2,-1,-3,-2,1,0,1
32929856058,-3,0,1,-2,0,-1,0,-1
32929856058,1,0,4,6,4,0,-2,1
32929877909,0,-1,-8,-8,-2,-3,0,0
32929877909,-1,-2,-6,-2,-5,-2,-1,-1
32929878566,1,1,6,4,0,2,0,-2
32929878566,-2,-3,-9,1,0,-2,0,-1
32929890604,-3,-1,7,-2,-2,-1,2,-1
32929890604,-1,-1,-15,-9,-3,-4,-3,-1
32929899723,-2,2,4,-4,-1,0,0,1
32929899723,-2,-3,2,8,2,0,-1,1
32929914468,-3,-1,-7,-6,-5,-1,-3,-1
32929914468,-1,1,-3,-1,1,-2,0,-1
32929916082,-2,0,6,6,1,1,3,0
32929916082,0,-1,1,1,5,0,0,-1
32929937103,1,-3,8,4,-2,-4,-1,-2
32929937103,-1,-2,-6,-5,-3,0,0,-1
32929938650,-1,-2,-1,-6,-2,0,-1,-1
32929938650,0,1,-9,0,-2,0,1,0
32929950783,0,3,7,-1,-1,2,2,-1
32929950783,0,-1,14,12,2,0,0,-1
32929967151,0,0,-17,-9,-1,0,-2,0
32929967151,-1,-2,-11,-10,-1,-1,-1,0
32929974532,-1,-2,11,4,-7,-2,-4,1
32929974532,1,0,-18,6,13,3,1,1
32929976143,-2,0,6,2,-3,-2,1,-2
32929976143,0,-1,-4,-4,3,-1,-1,-1
32929997067,0,0,-7,-2,3,1,-1,-1
32929997067,0,0,14,0,6,0,0,-1
32929998656,1,0,4,0,-2,1,0,0
32929998656,0,2,-2,0,2,-1,1,0
32930010673,0,-5,-8,-12,-5,-4,-2,-2
32930010673,0,2,30,7,-4,-1,-1,1
32930019616,0,-2,-19,-1,-3,-5,-2,-1
32930019616,-1,0,1,-4,-4,0,-1,-1
32930034542,1,-1,-2,10,2,1,-1,1
32930034542,-2,0,-3,-8,-6,0,-3,-1
32930036083,1,-2,9,2,6,0,-1,1
32930036083,-1,0,-3,-1,-5,0,-1,-1
32930057113,-4,-1,-8,-3,1,2,0,-1
32930057113,-2,0,-4,-1,-3,-2,-1,0
32930058598,-1,-2,4,1,-1,0,2,-2
32930058598,-2,-2,-3,2,-5,0,1,-3
32930070803,0,0,-8,-12,-6,-1,-1,0
32930070803,-1,1,3,5,10,0,2,-1
32930079621,-1,0,-14,-12,-2,-2,-1,0
32930079621,-1,-1,13,10,0,-1,-2,-2
32930094592,0,1,-3,1,-2,-2,0,-2
32930094592,-1,-3,-7,-5,-6,-2,0,-3
32930096144,0,-2,4,1,-2,-2,-1,0
32930096144,1,1,0,1,-2,-2,0,2
32930116383,0,0,0,2,3,-1,0,-1
32930116383,-2,-1,-11,1,-2,0,-2,-1
32930117269,2,0,8,0,7,2,1,0
32930117269,0,-1,12,9,-2,0,-1,0
32930138972,-2,-3,-25,-7,0,0,-2,1
32930138972,2,0,0,-3,-3,-1,-2,-2
32930139756,-2,0,4,3,-5,-1,-1,0
32930139756,-1,0,-5,-7,0,0,0,0
32930155312,0,0,4,5,2,1,0,1
32930155312,0,-2,5,1,-2,-1,-2,1
32930156119,-2,-2,4,-6,-8,-2,-1,0
32930156119,-1,-4,-10,-5,7,2,1,-2
32930176465,-1,2,4,6,10,-2,1,-2
32930176465,0,-1,-10,0,1,-2,-1,-1
32930177151,-2,-3,5,4,-1,-2,-2,-2
32930177151,0,-2,1,-5,-3,0,1,-1
32930199438,1,1,-3,1,-3,2,0,0
32930199438,1,-1,1,-9,-1,1,1,1
32930200148,0,0,-4,0,-1,-3,-1,-1
32930200148,0,0,-5,-2,2,-3,-1,0
32930222152,-2,-1,-4,4,-4,-2,-3,-2
32930222152,-2,1,9,8,-1,-4,-1,-1
32930222858,-1,0,-5,-5,4,1,0,-2
32930222858,-1,-2,-3,-4,-2,0,-2,0
32930236067,0,-1,1,-2,-1,-1,-1,0
32930236067,-1,-3,-1,-3,-5,0,1,-1
32930243787,-1,0,-6,-8,-6,-2,0,0
32930243787,0,-4,9,11,2,0,0,0
32930258940,-2,-1,-20,-8,-4,-1,-1,0
32930258940,-2,1,12,2,-3,2,0,1
32930259698,-1,0,-9,-2,3,-1,-1,0
32930259698,-2,-3,7,-7,-5,-6,-2,-2
32930273853,0,-1,14,5,1,-1,0,-1
32930273853,2,7,-18,4,3,1,1,-1
32930274661,-2,-8,9,-1,-1,0,0,-1
32930274661,-1,4,-2,5,1,0,-1,1
32930296367,0,-6,23,-3,-1,-1,-1,-1
32930296367,-2,1,-16,-9,-5,-1,-3,-2
32930297276,1,6,-7,0,1,2,-1,0
32930297276,-1,-7,4,-6,-1,-2,-1,-3
32930318950,1,2,-14,-15,2,0,1,0
32930318950,-1,-14,-6,11,-2,-1,-1,0
