timestamp,emg1,emg2,emg3,emg4,emg5,emg6,emg7,emg8
32728386677,-1,3,-9,-4,-2,-1,-2,0
32728386677,0,1,17,57,4,1,0,-1
32728401589,-2,-7,-21,-41,-8,-4,-2,2
32728401589,-1,0,2,-10,0,0,0,-4
32728403232,-1,-1,7,-6,-7,-3,-1,-2
32728403232,0,-6,-12,19,0,0,-1,3
32728424095,1,0,-3,9,2,2,1,-1
32728424095,1,-1,1,7,-4,-1,-2,2
32728425678,-1,2,3,24,2,1,0,3
32728425678,-2,-1,-19,-42,-3,-2,0,3
32728446624,-1,1,18,48,0,-1,-2,1
32728446624,-1,-2,-9,-39,2,1,0,3
32728448270,0,0,3,38,6,0,-1,0
32728448270,0,-1,7,-32,-9,-3,-3,1
32728461604,1,1,7,16,4,1,-2,2
32728461604,-6,-1,-9,-12,-6,-2,-1,-2
32728463244,7,-3,1,24,-1,1,-2,-1
32728463244,-1,-1,-9,-2,1,-1,-2,-2
32728484108,-2,-2,0,40,-1,-3,1,-4
32728484108,2,4,8,11,-3,-2,0,1
32728485710,-4,-5,-1,-62,-3,-1,-1,-2
32728485710,0,1,-18,4,-4,-2,0,-1
32728497694,0,5,1,-1,3,2,0,1
32728497694,1,0,-3,9,0,-2,-1,0
32728506728,-2,-4,-4,6,1,-1,-1,-1
32728506728,0,0,16,25,2,0,0,-2
32728520935,-1,-2,-5,-47,-8,-3,0,-1
32728520935,-2,-1,-19,-2,1,-1,0,-2
32728527714,1,1,14,0,1,0,1,0
32728527714,-2,2,-2,-10,-2,-1,0,-1
32728544106,0,1,0,63,5,0,1,-2
32728544106,0,-1,7,-64,-9,0,-1,-3
32728545685,0,-1,-2,27,1,-1,-1,-2
32728545685,-1,-1,2,-38,-1,-2,-1,-2
32728557717,3,2,6,17,0,-2,-2,-1
32728557717,-1,-2,-2,-7,0,-2,-1,-1
32728566723,-2,-1,1,-15,-3,-4,1,-1
32728566723,-2,-1,2,13,2,2,0,1
32728581576,-3,-3,-3,-20,-3,0,-3,-3
32728581576,0,-2,4,41,0,-1,-1,-2
32728583241,-1,-1,-9,-40,0,0,0,-2
32728583241,-2,-1,2,36,-2,-1,1,-2
32728604079,2,-2,-10,-55,-4,-1,0,0
32728604079,-1,-1,0,4,7,0,-2,0
32728605699,-1,0,3,26,2,-1,0,1
32728605699,3,2,6,3,2,0,-2,-3
32728617721,0,-6,-12,-24,-3,-3,-1,0
32728617721,2,-1,-3,6,-3,-3,-1,1
32728626740,1,0,-10,-16,-1,-2,-2,-1
32728626740,-3,0,12,21,-1,-2,0,1
32728641591,1,1,3,4,4,2,0,0
32728641591,-3,0,-2,2,-6,0,-2,0
32728643247,-5,-4,-2,27,-4,1,-1,0
32728643247,1,0,-3,-55,-4,1,1,0
32728664062,-3,0,0,42,0,0,0,1
32728664062,-3,2,0,14,4,2,1,0
32728665675,2,3,10,-1,0,0,2,0
32728665675,0,1,4,23,5,-1,0,-1
32728677739,-2,-3,-12,-22,-2,-5,-3,-2
32728677739,0,-1,22,26,1,0,-3,-3
32728686686,-3,-1,3,7,-6,0,-2,0
32728686686,-2,-2,-1,0,5,-1,0,-1
32728701585,3,2,-3,14,2,1,0,-1
32728701585,-1,1,-8,-44,-11,-2,-1,-1
32728703230,1,-1,1,-9,2,-2,-1,0
32728703230,2,-1,-8,14,-3,-3,-2,-2
32728724588,-2,-2,3,3,1,1,2,1
32728724588,0,-1,-14,-17,0,0,-1,0
32728726185,0,-2,-3,3,-4,-1,-1,-1
32728726185,0,0,0,19,3,-1,-2,-2
32728746633,-4,-2,1,-57,-6,-1,-1,-2
32728746633,2,-6,6,39,2,1,0,-1
32728748234,-1,2,-9,-22,2,-1,-1,-1
32728748234,-1,-4,-10,-15,3,0,1,0
32728761581,2,3,17,26,0,0,-1,1
32728761581,-2,-3,-13,-8,-3,-3,1,2
32728763238,1,0,0,8,1,-1,0,0
32728763238,-2,0,9,-18,-4,0,-3,-2
32728784074,0,1,0,-3,9,2,1,1
32728784074,-2,-2,5,21,-2,0,0,0
32728785644,-1,0,0,6,1,-1,-1,0
32728785644,2,1,-3,-12,-7,1,0,1
32728806595,-1,0,0,-20,-4,0,-2,-1
32728806595,0,1,0,-1,2,-1,-2,-1
32728808253,0,-3,-6,42,3,-1,-2,-2
32728808253,-3,1,7,-51,-11,-2,0,-1
32728820263,-2,-4,-9,13,1,-2,0,0
32728820263,-1,0,-5,-16,0,-3,-1,0
32728829227,1,0,2,18,-2,-1,0,1
32728829227,-1,-3,-7,11,2,-1,0,-1
32728844091,1,0,-10,-16,-5,-1,-1,0
32728844091,-1,1,-10,-10,3,1,0,1
32728845688,0,0,9,-25,3,1,0,-2
32728845688,0,-2,7,39,-5,0,-2,-1
32728866548,0,-2,-14,-38,7,1,-1,-1
32728866548,-1,-2,2,29,-1,-2,-1,-3
32728868253,0,-3,-7,-25,-3,-1,0,0
32728868253,0,2,5,28,3,2,-1,-1
32728881387,-4,0,6,-5,-8,-1,-1,-2
32728881387,0,1,0,10,-3,-1,-1,2
32728889263,-1,-1,-6,-20,-1,-1,-1,0
32728889263,-2,0,-4,-2,1,-1,0,2
32728904082,0,-2,4,22,-4,-1,-2,-1
32728904082,-2,-1,-9,-21,4,0,1,-1
32728905701,-3,-1,2,-1,-4,-3,-1,0
32728905701,0,-2,-2,-12,2,0,1,0
32728926609,1,-3,-4,8,-1,-1,0,-1
32728926609,-1,0,7,-15,-1,1,1,-1
32728928331,0,0,3,26,-3,0,-1,-1
32728928331,-2,-3,-11,-15,3,1,-2,-1
32728941029,-1,2,15,38,1,1,1,0
32728941029,-1,-2,-2,-38,-9,-2,-2,-2
32728947839,1,2,-5,26,-1,1,0,0
32728947839,0,0,-6,-19,0,-1,0,0
32728964141,-1,-1,4,19,2,-2,-2,2
32728964141,-1,-3,-2,5,-3,1,0,0
32728965878,-4,-2,-1,-23,6,1,-2,1
32728965878,3,0,-9,46,2,-3,-1,-1
32728986690,-3,-2,-5,-28,-6,-3,-2,-2
32728986690,0,0,14,-6,-1,-3,-1,-2
32728988406,0,0,1,-40,-4,-1,-1,1
32728988406,-3,0,1,45,1,0,-1,0
32729001035,1,-2,-17,-8,1,-2,0,0
32729001035,-1,2,-8,2,-1,-1,0,2
32729007879,0,0,8,26,2,1,1,0
32729007879,0,-3,1,-11,-4,-2,0,-1
32729024019,3,5,10,-25,1,1,1,-2
32729024019,-3,-3,-6,29,0,0,-3,0
32729025763,0,0,-5,-4,-4,0,0,-2
32729025763,2,0,-9,-24,-1,1,-2,0
32729046750,-2,-3,1,1,-3,0,-2,-1
32729046750,-1,1,4,-3,3,4,0,2
32729048399,0,-1,4,5,-2,-2,-1,1
32729048399,-2,-1,-2,-10,-3,-3,0,0
32729060947,2,1,-3,-31,7,2,1,1
32729060947,-1,0,8,5,2,-2,0,-2
32729067799,-2,-1,-2,-18,-8,-3,-1,-4
32729067799,-3,-2,-5,5,0,0,1,-2
32729084111,-1,-3,2,3,-7,-2,0,0
32729084111,0,0,-4,2,2,-1,0,0
32729085741,-1,0,12,-1,0,0,1,-3
32729085741,-1,-1,-3,-24,-2,-1,-1,-4
32729107370,-3,-1,-7,27,-1,0,1,-1
32729107370,-1,-2,-4,-14,-2,0,-3,-2
32729108944,-1,0,2,-3,-3,-3,0,-1
32729108944,-5,-5,7,17,3,0,-1,-1
32729120907,1,-2,-4,6,4,0,-2,0
32729120907,-1,-1,14,7,-2,-1,-2,-3
32729127734,1,-4,-14,-46,1,-1,-1,2
32729127734,0,-1,0,53,-4,-2,0,-2
32729144214,-1,-1,-2,-53,-4,0,0,0
32729144214,-1,-2,-1,40,-1,-1,0,0
32729145877,1,1,-12,-3,6,1,-2,1
32729145877,-1,0,5,-19,-3,-3,1,0
32729166599,-2,-3,5,30,-2,-2,-2,-3
32729166599,1,0,-16,-49,-1,-1,2,-2
32729168250,-4,-2,-6,20,2,-1,0,-2
32729168250,0,3,-3,35,4,0,0,-1
32729181050,-1,1,-1,-21,-4,-1,0,-1
32729181050,3,3,6,-14,-1,1,-1,3
32729187908,-1,-1,-3,-3,-7,0,0,1
32729187908,-1,-2,-2,-13,1,-1,-3,1
32729204157,-2,1,10,30,1,0,0,1
32729204157,-2,-3,-1,4,4,1,-1,-1
32729205780,0,2,-3,8,-1,0,-2,-1
32729205780,1,0,0,-25,-2,-1,0,2
32729225824,-2,0,-6,8,0,-2,0,-1
32729225824,1,2,5,5,-3,-4,0,-1
32729234265,1,0,-8,4,1,0,-1,-2
32729234265,0,-1,0,-14,-3,2,0,-1
32729240405,0,-1,-13,-26,2,0,-3,-1
32729240405,1,2,19,2,-2,0,-1,-2
32729249278,-2,-5,-1,11,-7,-2,0,-2
32729249278,-3,1,5,-7,5,-2,0,-3
32729264122,-1,-3,-5,-14,2,1,0,-1
32729264122,2,1,-1,33,-4,-3,-2,1
32729265737,-1,0,-4,-22,-2,0,1,0
32729265737,3,0,-6,-11,-3,-1,-2,-1
32729286639,-3,-5,-1,56,2,-1,-2,0
32729286639,-2,1,-11,-56,-2,-1,-2,-1
32729288394,-2,-8,15,55,2,-2,-1,0
32729288394,-2,3,-5,-64,-9,-2,0,1
32729300472,-1,-1,-3,4,-1,-1,-1,-3
32729300472,-1,0,5,27,-1,0,1,-1
32729309291,0,-1,-5,9,2,0,-2,1
32729309291,-1,-2,1,7,4,3,-1,0
32729324176,-3,-1,-4,-15,-4,-5,-2,-1
32729324176,-6,0,2,2,-2,1,0,-1
32729325767,7,3,0,-5,2,0,0,1
32729325767,-1,-4,-6,37,4,0,-1,-2
32729346761,2,2,6,-19,-5,0,1,1
32729346761,-1,-2,-21,-63,-1,-1,2,-2
32729348341,-4,-1,5,37,-5,-2,-1,-1
32729348341,-2,-4,-7,-14,-3,-1,-3,-2
32729360427,0,3,8,23,-2,2,0,1
32729360427,2,-2,-1,8,3,-2,-1,0
32729369265,1,2,0,-29,-3,-2,-1,0
32729369265,0,-1,-2,-55,-6,-2,-1,-2
32729384289,-3,0,12,71,7,0,-1,-1
32729384289,1,-2,-8,-11,3,-1,1,0
32729385846,1,0,-2,9,-2,-1,-1,-1
32729385846,-1,-1,-9,-19,-1,-2,1,2
32729406639,-2,0,12,-13,-3,-2,1,0
32729406639,-1,-3,-2,-2,-8,-1,-1,1
32729408296,-3,-2,-2,-6,4,1,1,-2
32729408296,3,3,3,-4,1,0,0,0
32729420403,1,-2,-8,1,-2,-1,1,1
32729420403,2,0,2,11,-1,-2,-2,-2
32729429386,-3,-4,-8,-24,-3,-1,-1,-3
32729429386,-2,-4,2,21,-2,-1,-2,-3
32729444154,1,0,-11,-14,-2,0,-1,0
32729444154,-1,2,26,44,-1,0,-1,-2
32729445687,0,1,-3,15,9,2,0,0
32729445687,0,0,-5,-16,-5,-3,2,1
32729466857,-1,-1,6,-40,-4,-2,-1,0
32729466857,-4,-2,-6,-5,2,-1,0,-1
32729468350,1,2,-1,21,1,0,0,1
32729468350,1,-1,7,38,2,0,1,-2
32729480299,1,-3,-10,-11,-2,-2,-1,-1
32729480299,1,-1,-18,0,0,-1,-1,-3
32729489241,-1,1,11,-28,2,0,0,-1
32729489241,1,-1,2,30,3,0,-2,-1
32729504210,-4,-2,-8,-21,-5,-3,0,0
32729504210,0,0,7,16,-1,2,1,2
32729505886,-2,0,-9,-51,-5,-3,-1,-3
32729505886,-2,0,5,2,1,2,-1,-3
32729526805,1,1,-3,12,0,-2,-2,-1
32729526805,2,2,-8,2,-2,-1,-2,-1
32729528366,0,-4,7,12,1,1,1,0
32729528366,-1,2,4,-17,-3,0,-1,3
32729540325,-4,-4,-16,-18,-2,-2,-1,-2
32729540325,-1,-2,5,19,2,-1,-1,-1
32729556785,-2,0,0,2,0,-3,0,0
32729556785,0,-2,4,9,4,0,0,0
32729564218,-2,-3,-6,20,1,1,-1,-1
32729564218,0,-1,-6,-32,-3,0,0,-1
32729565846,2,2,7,26,1,-1,0,0
32729565846,-1,-3,-8,-4,-5,-2,-1,-1
32729586765,2,1,6,9,0,0,1,2
32729586765,-2,-1,-14,-29,4,-1,1,1
32729588431,-1,2,1,-48,-6,-2,-2,-1
32729588431,-3,0,-4,37,-1,-2,0,0
32729600276,0,1,8,7,-2,-2,0,1
32729600276,0,-1,-2,-3,2,-2,-2,0
32729609318,-2,-1,3,10,0,0,0,0
32729609318,0,1,-11,-35,-2,-1,0,-1
32729624158,-3,-2,0,-2,-1,1,0,-4
32729624158,-2,0,5,16,-3,0,-1,-1
32729625782,-1,-1,-2,-13,-1,-1,-3,1
32729625782,-1,0,4,19,0,-1,-1,-1
32729646751,-1,2,0,1,-1,-2,-3,3
32729646751,-1,-2,-2,-9,1,0,-1,-2
32729648428,0,1,9,43,-2,-1,1,-1
32729648428,-3,1,-3,-79,0,1,-1,0
32729660396,1,1,-1,4,3,-3,0,-1
32729660396,1,-3,-4,10,-1,-2,0,1
32729669312,-1,-2,-2,-10,-1,0,-2,0
32729669312,-1,0,5,29,2,-1,0,0
32729684192,2,0,0,-5,0,1,0,-1
32729684192,1,-1,-1,-19,-5,-1,-2,0
32729685799,-1,0,-14,29,-2,-3,-1,-2
32729685799,-2,-2,26,12,7,1,0,-1
32729706811,-2,-2,-10,-35,-10,-3,1,0
32729706811,0,2,0,22,2,2,2,-1
32729708356,1,-1,-5,-9,0,1,-1,-1
32729708356,-1,-2,-3,46,-1,0,-1,-1
32729729123,-2,-4,-17,-67,-3,0,-2,-2
32729729123,0,-1,16,8,0,0,-1,3
32729730744,-3,-2,-10,-3,-1,-1,1,0
32729730744,0,2,-2,13,-4,-3,0,0
32729744281,2,0,7,25,4,0,-2,-1
32729744281,-2,-2,-18,19,-1,-3,0,-1
32729745803,0,-1,3,-59,-3,-1,-2,0
32729745803,0,0,-4,11,4,-2,-1,-2
32729766640,-3,-1,-5,19,0,1,0,-1
32729766640,-3,0,0,-8,-1,0,-2,0
32729768407,0,-3,5,3,-2,0,1,0
32729768407,0,-2,-1,-11,-4,-2,-2,1
32729789190,1,2,5,12,-3,1,1,0
32729789190,0,-2,-6,-5,-1,-1,0,0
32729790784,0,-2,-3,5,-1,-2,1,0
32729790784,0,1,2,-19,-3,1,-1,-2
32729804329,-2,-1,3,12,2,-2,-1,-2
32729804329,-1,0,3,-9,3,-3,-1,1
32729805868,-4,1,-16,-4,-4,-4,-1,-2
32729805868,-1,-3,13,22,-3,-4,-1,1
32729825724,2,1,6,-3,1,2,1,0
32729825724,-1,-2,-6,8,-1,-1,-2,-2
32729834298,-1,-4,5,3,2,0,1,1
32729834298,-1,1,-12,-17,-3,0,-1,1
32729849266,0,0,3,14,4,-2,-2,-2
32729849266,-1,0,-1,-7,-3,0,-1,-1
32729850889,1,0,-7,-2,1,3,1,-1
32729850889,-1,-2,-8,11,0,2,0,0
32729863588,0,3,11,-6,-4,0,0,-1
32729863588,-3,-3,3,29,2,0,-2,1
32729871006,0,1,5,1,-3,-4,-1,0
32729871006,0,-1,-5,-60,-1,-1,-1,-2
32729886132,-2,1,-1,6,-3,-2,-2,-2
32729886132,-1,-1,1,0,-1,1,2,0
32729886730,-4,-3,-2,12,2,0,-1,-1
32729886730,0,1,-1,5,-3,1,0,0
32729908698,1,-1,-4,13,2,0,1,1
32729908698,2,-1,-12,-19,-2,-2,2,-2
32729909322,-1,1,16,-11,3,1,0,0
32729909322,-1,-3,-12,17,0,1,1,-2
32729931802,-3,0,5,14,1,-2,0,-2
32729931802,-1,0,-2,2,0,1,-1,-1
32729932446,1,2,4,-2,0,-2,-2,-2
32729932446,2,0,-5,-13,-1,-1,-2,-1
32729946231,0,-1,-9,-5,-3,0,0,2
32729946231,1,0,14,10,0,-2,-2,0
32729946779,-1,0,4,12,9,0,-2,0
32729946779,-4,-2,-5,-14,-3,-3,0,-2
32729968602,0,-3,-8,22,3,1,0,0
32729968602,-4,0,19,-60,-2,0,-1,-1
32729969304,-4,-2,-15,28,-4,-2,-4,-2
32729969304,-1,1,6,13,1,1,1,0
32729983555,1,0,-3,-11,1,1,1,1
32729983555,1,1,-9,-2,0,-2,-2,-1
32729984292,2,-1,10,7,1,-1,-1,-1
32729984292,0,-1,-8,-17,-1,-1,0,-2
32730006040,-2,-3,-2,-5,0,0,0,0
32730006040,0,0,-2,17,-2,0,-1,0
32730007676,1,1,-1,-11,0,-3,-2,0
32730007676,-2,0,2,37,1,-2,-1,-1
32730028443,-1,-3,-10,-57,-5,-2,0,-2
32730028443,-1,-1,-5,-12,-1,-1,1,-1
32730029276,-1,-1,-8,20,-10,1,1,-1
32730029276,1,1,-1,7,1,-1,-3,1
32730043456,-1,-1,8,-2,1,0,-2,-1
32730043456,-2,-3,8,-17,-6,-3,-2,0
32730044308,-1,-1,0,-3,0,0,-2,-2
32730044308,-1,-2,0,-7,1,2,1,0
32730066123,-1,1,-1,19,0,-1,0,-1
32730066123,1,1,-4,1,1,0,1,0
32730066783,0,-2,-5,-12,-1,0,0,0
32730066783,-1,-3,-1,9,-3,-2,0,-1
32730088501,-2,2,4,-8,-2,-1,-1,-1
32730088501,0,1,-4,14,-4,-1,0,-1
32730089242,-4,1,3,11,-1,-3,1,1
32730089242,-1,-2,-7,-23,8,-1,1,0
32730111811,0,-3,-2,24,0,2,1,2
32730111811,-2,-1,-29,-26,2,-1,-1,-1
32730112513,0,-2,18,14,-10,-2,-1,0
32730112513,1,2,11,-1,-2,0,0,-1
32730125993,1,-1,-5,-12,2,0,1,-2
32730125993,2,-3,5,19,-2,-2,0,-1
32730126749,-1,1,-14,12,2,0,-1,-2
32730126749,-3,-1,18,-17,-2,-1,-2,-2
32730148538,-3,-2,-1,-1,1,0,0,0
32730148538,0,0,7,-7,4,-1,0,-1
32730149245,-1,0,-6,-12,-5,0,0,1
32730149245,-1,-1,-2,15,-2,-1,-1,0
32730163538,-2,1,-7,-10,-2,0,-1,-1
32730163538,0,0,3,19,-2,3,-1,-2
32730164296,0,1,2,-19,2,0,-2,0
32730164296,-2,1,-5,-10,1,-2,-1,-1
32730186085,-2,-1,7,6,1,-3,-1,0
32730186085,-2,-1,-2,11,-1,1,-1,1
32730186711,0,-1,5,-18,1,-1,-1,0
32730186711,1,0,-16,-27,-6,-1,0,-1
32730208582,-2,-2,14,31,3,1,-3,-2
32730208582,1,-1,7,14,2,0,0,-1
32730209295,-2,2,-3,-12,-9,-4,0,1
32730209295,0,-2,-4,2,3,-1,0,0
32730223502,-1,0,-6,0,-1,-1,0,0
32730223502,-2,-1,-1,-14,-1,-1,1,0
32730224281,-1,-1,-14,-29,5,0,-1,-2
32730224281,1,0,13,36,1,-1,0,-1
32730245984,-5,-5,-5,-12,-8,0,-2,-1
32730245984,-1,4,7,-12,6,0,-2,-1
32730246789,0,-3,-5,-4,-2,1,1,-3
32730246789,-1,1,1,5,-2,-2,0,1
32730268649,1,-1,-7,-11,0,-2,-1,-2
32730268649,-1,-3,6,-4,-2,-1,-1,-1
32730269302,-1,-1,-2,37,3,0,2,-1
32730269302,-1,-1,-2,-33,1,0,0,1
32730282959,-2,-3,-13,28,-5,-2,1,0
32730282959,-4,0,-5,-5,-1,-2,1,1
32730291113,1,-1,-1,-4,-2,0,0,0
32730291113,-1,-1,-1,-14,-1,0,-1,-1
32730306059,1,3,-1,48,5,0,-2,1
32730306059,-1,-1,5,-49,-8,-3,-2,-1
32730306827,0,-2,-1,2,2,0,1,-2
32730306827,-1,0,2,8,1,3,0,-1
32730328595,0,-1,-8,-5,3,-1,-1,0
32730328595,1,-2,-20,11,0,0,-3,-1
32730329307,-2,4,11,18,3,0,-3,-1
32730329307,-2,-3,-2,-6,-4,-2,1,-2
32730342975,1,-1,7,-20,-3,0,1,-1
32730342975,4,0,-3,17,-1,1,0,-3
32730351038,1,-1,8,11,2,-1,-2,-1
32730351038,0,-4,-14,-37,-14,-3,-1,0
32730366078,-1,2,8,6,-3,-3,1,-1
32730366078,-1,-1,1,11,-1,-1,-2,-1
32730366798,0,1,-7,-3,2,0,0,1
32730366798,-1,1,1,-3,3,0,-2,-1
32730388626,0,-2,7,9,-1,-1,1,-3
32730388626,-3,-1,-6,-6,0,-2,-1,-1
32730389312,-1,-3,-14,-11,0,0,1,-1
32730389312,0,2,8,18,2,-1,0,1
32730402895,-2,0,4,-31,-1,-1,0,1
32730402895,-1,-2,6,35,4,-1,0,-2
32730411158,-1,3,6,-1,-1,1,-1,1
32730411158,0,-4,-16,-54,-4,-2,-1,-1
32730426084,-2,1,-3,5,1,-1,-1,0
32730426084,2,0,-2,5,1,1,1,-2
32730426813,-1,0,5,27,-4,-2,1,-1
32730426813,-1,-1,14,21,9,1,0,-3
32730448587,-2,-3,-8,-16,-3,0,0,0
32730448587,-1,-2,-7,-17,0,-1,-1,-1
32730449293,0,0,-8,-1,-2,1,-1,-1
32730449293,0,3,6,16,1,1,-1,0
32730462940,0,3,19,-30,-3,-2,-1,0
32730462940,-2,5,-10,11,-2,-1,1,1
32730471054,1,-13,-2,34,4,-1,1,-1
32730471054,-2,2,-3,-56,-5,-3,0,0
32730485959,2,-2,-3,2,2,2,-2,-1
32730485959,-1,1,14,25,-2,1,-1,-1
32730486730,-1,-1,-6,10,1,-1,-2,0
32730486730,-1,-3,-1,0,-1,1,-1,-1
32730508504,-1,0,-15,-20,-5,-1,0,-2
32730508504,5,1,12,3,-6,-4,0,1
32730509365,-15,-1,1,-15,2,0,0,2
32730509365,2,0,-1,31,3,0,-3,0
32730531842,-1,-2,-10,-11,-1,-2,3,1
32730531842,-4,-4,5,8,1,-2,1,0
32730532520,3,4,14,-15,0,0,0,-1
32730532520,0,0,-33,8,-5,-1,0,1
32730546039,1,0,16,10,3,-1,-4,-2
32730546039,0,-5,-20,-10,-3,1,-2,-1
32730546820,2,0,8,-23,-3,-3,0,-3
32730546820,-2,0,6,34,2,1,0,0
32730568641,-1,1,-2,0,1,1,-3,-1
32730568641,-2,0,-1,-2,0,0,1,1
32730569333,0,1,-28,-23,-4,-1,-1,-2
32730569333,1,0,25,17,-1,1,3,-1
32730582919,8,3,13,13,3,1,-1,1
32730582919,-9,-1,-10,-8,-5,-5,-4,-2
32730591175,1,-5,-12,-28,-3,-1,-2,-1
32730591175,-2,-2,-3,5,-1,-4,-1,0
32730606027,0,-4,-5,15,1,0,-1,2
32730606027,-2,2,-7,-19,-3,2,0,-1
32730606887,0,2,22,2,4,1,0,-4
32730606887,4,1,-3,8,-3,-1,4,5
32730628624,-5,2,0,10,-3,0,0,-2
32730628624,4,-1,-3,-3,1,-4,-1,0
32730629345,-2,-5,4,2,-6,-1,0,-2
32730629345,-1,1,9,3,2,1,0,-2
32730651668,-4,-1,-6,-11,-5,-3,-5,1
32730651668,-2,-1,-9,-4,-1,3,1,-1
32730652445,3,-1,8,6,2,-1,-1,2
32730652445,-2,1,-5,-21,0,-1,-2,-1
32730666126,-1,-3,-5,9,-2,-1,1,-3
32730666126,2,8,16,-11,9,2,-2,-2
32730666822,-4,-6,-28,1,-3,-1,0,0
32730666822,1,5,9,-1,-4,-1,-3,-4
32730688604,-4,-7,-18,-2,2,0,-1,1
32730688604,0,-4,22,8,-3,-1,0,0
32730689332,1,5,-25,-18,-3,2,1,0
32730689332,-1,-7,12,11,1,-2,-1,1
32730711688,1,0,-17,-7,5,1,-1,-2
32730711688,2,1,10,28,-2,0,-1,1
32730712630,0,4,5,-14,-1,-1,0,-1
32730712630,-2,0,-18,-1,-2,-2,-2,-2
32730726000,-3,-6,7,-15,-1,-2,-1,0
32730726000,-2,-6,-13,-23,-1,1,0,-1
32730726922,0,-2,3,16,-1,-3,-3,0
32730726922,-2,-5,-29,-3,4,-2,-1,-1
32730748539,-3,0,16,-1,-1,-2,-1,-2
32730748539,1,-1,-5,-11,-8,-4,0,-2
32730749322,1,-4,-9,6,0,1,0,-2
32730749322,0,-1,6,-12,-5,-2,-2,-2
32730771641,0,5,16,10,0,-3,2,1
32730771641,-5,-2,-9,-5,-1,0,-1,1
32730772434,0,-2,16,25,-1,-1,-1,0
32730772434,-3,-4,-48,-30,-1,0,1,0
32730786155,2,5,16,3,5,3,1,0
32730786155,0,-8,4,-12,-2,-2,1,1
32730786797,-2,7,19,13,2,0,-2,2
32730786797,-5,-9,2,13,-3,0,-2,-1
32730808633,4,-1,-6,1,-3,0,-4,-2
32730808633,-2,1,-6,-12,1,1,-2,-2
32730809302,1,3,-9,55,5,1,2,0
32730809302,-1,-3,24,-52,-4,-1,-1,-3
32730831708,-2,-2,-11,-3,2,0,3,-1
32730831708,1,0,5,16,-1,-2,0,0
32730832534,-1,-4,-10,-49,2,-1,-4,0
32730832534,1,1,3,39,5,-1,1,0
32730846018,-4,-1,-2,-3,-4,-1,0,-1
32730846018,-1,1,-5,18,3,1,0,-1
32730846843,-6,-5,-1,-18,-11,-3,0,-1
32730846843,1,6,23,39,8,4,0,1
32730869376,2,1,-23,-47,-8,-3,0,1
32730869376,0,-5,15,18,1,-2,0,-1
32730869973,0,-3,1,-30,-3,-2,-1,-1
32730869973,3,2,4,25,-3,-3,-1,0
32730891698,-4,1,4,20,1,0,1,0
32730891698,1,-2,-15,-27,1,-1,-1,-1
32730892489,10,-1,1,17,-2,-4,-3,0
32730892489,-15,2,-22,-65,-4,-1,0,2
32730906124,-2,1,3,26,4,-1,-2,0
32730906124,-4,-3,-3,4,-2,0,2,-2
32730906784,-2,-1,4,-4,-1,2,1,-4
32730906784,7,0,-3,21,-3,-3,-3,-4
32730929224,-2,1,1,-31,0,-2,0,-3
32730929224,-1,1,-4,3,-1,0,-3,0
32730930049,-1,2,-8,-4,0,-1,1,0
32730930049,1,-1,12,1,4,2,2,3
32730951659,-3,2,-3,2,-4,-3,-4,-2
32730951659,1,-4,4,1,-3,-3,-2,-1
32730952494,-3,2,2,1,-2,-3,0,0
32730952494,1,-2,-6,-1,0,0,0,-1
32730966165,0,-7,-1,-2,-5,-3,0,-1
32730966165,2,5,-10,12,-2,0,-1,-1
32730966815,1,-3,8,-6,0,-1,1,1
32730966815,-1,3,-3,-3,7,2,0,-1
32730989293,0,-4,1,11,-6,-2,1,0
32730989293,0,4,-5,-19,1,2,2,1
32730990002,-1,-1,4,-6,0,0,0,-1
32730990002,0,-4,-2,13,-3,-3,-2,-1
32731011682,2,0,0,-9,5,2,-2,1
32731011682,-4,-2,-10,10,-3,-4,0,-1
32731012473,-2,6,14,0,3,0,0,-2
32731012473,6,-4,0,-1,-2,2,1,0
32731026055,-1,3,2,1,-6,-2,0,-1
32731026055,-2,-1,-15,-17,1,-1,-4,0
32731026815,-2,-7,6,56,3,1,-1,0
32731026815,1,2,-4,-56,-3,-2,-1,1
32731049296,0,-2,-6,4,-2,-1,0,1
32731049296,-8,-2,2,19,1,0,-3,-2
32731050016,-3,5,17,-22,-8,-1,-3,-2
32731050016,-3,0,-7,13,0,-1,-1,-1
32731071704,1,-4,-6,-17,-3,1,-2,-4
32731071704,1,1,20,22,-3,-2,0,2
32731072677,2,-5,-21,-10,6,2,-1,0
32731072677,-3,0,0,20,0,-1,0,-2
32731086063,3,2,5,9,3,0,1,-1
32731086063,-1,-3,15,-11,2,0,1,-3
32731086768,-1,-6,-14,-13,-3,0,0,-1
32731086768,1,-4,-2,7,-2,0,1,1
32731109226,-2,2,-2,14,4,0,1,-1
32731109226,-1,-4,16,8,1,-1,-1,2
32731109967,1,4,-7,-51,-10,-4,-3,-2
32731109967,-7,-3,-13,-9,-2,-2,-5,0
32731131837,0,-1,14,35,2,0,-2,-1
32731131837,4,4,13,-10,-3,-1,0,-1
32731132547,1,2,-12,17,0,1,3,-1
32731132547,-2,-4,1,34,-3,1,-1,-4
32731146067,-1,-3,-17,-62,-6,-1,-2,0
32731146067,0,2,7,31,2,-1,-1,-1
32731146836,-3,-3,-3,-5,-2,-3,-3,1
32731146836,0,3,5,-2,-2,0,0,-1
32731169351,-1,-5,10,4,3,-1,0,-1
32731169351,-1,-3,-37,32,2,0,1,-1
32731170045,-5,1,-17,-71,-5,0,1,0
32731170045,8,4,33,26,-2,-2,1,2
32731191685,0,-2,-12,24,0,0,1,0
32731191685,-1,0,1,-63,-5,0,-3,-3
32731192557,-3,-6,2,28,4,-1,0,-2
32731192557,2,10,25,39,1,0,0,0
32731206062,-1,-10,-53,-32,-3,-1,-3,-1
32731206062,-3,0,2,-8,-4,-1,-2,-1
32731206768,1,3,5,1,3,-1,0,2
32731206768,-4,-10,-18,-31,-5,-2,1,-4
32731229430,0,1,6,23,-1,-3,0,0
32731229430,-3,-3,-14,1,-3,-1,-2,-1
32731230040,0,1,2,-19,-2,0,-1,-1
32731230040,0,0,-14,-15,-1,0,1,1
32731251850,-3,-3,18,35,2,0,-2,-3
32731251850,-1,0,3,-11,2,0,1,0
32731252526,0,1,-5,16,0,-1,-1,-2
32731252526,-3,-7,19,18,-7,1,-1,-1
32731265529,2,6,-2,-53,-3,0,-1,0
32731265529,-1,1,-8,-16,5,0,-2,1
32731273677,1,0,10,55,3,2,0,2
32731273677,-2,-1,-18,-44,1,-1,0,-1
32731289258,-3,0,11,5,-4,1,2,0
32731289258,3,-1,9,14,2,0,1,-1
32731290014,0,-1,8,18,-2,-2,-2,0
32731290014,-1,-1,-1,-4,0,0,-1,0
32731311766,1,0,-13,15,3,0,-1,0
32731311766,1,1,4,-22,-2,-1,0,-1
32731312556,-2,-2,8,19,1,-1,-1,-3
32731312556,-2,6,0,-1,-1,-2,-1,0
32731325549,-2,-9,-6,1,2,0,3,1
32731325549,3,-3,9,-19,-2,1,-1,-1
32731333546,-1,-6,-13,28,2,-2,-4,-3
32731333546,-3,4,1,-39,-3,-1,-1,0
32731349328,0,-4,-2,-26,-3,-3,-2,1
32731349328,1,0,12,14,3,1,0,1
32731349956,0,2,-2,7,-2,2,1,-1
32731349956,-3,-2,-5,18,-1,-2,-2,-3
32731371750,-3,5,2,-7,4,-1,0,0
32731371750,2,-2,-11,3,-8,-1,1,2
32731372599,0,0,2,-11,3,-2,-1,0
32731372599,1,5,-1,33,-1,1,1,2
32731385503,-3,-3,20,14,-2,1,-1,-1
32731385503,2,-2,-36,-56,-6,-2,-2,1
32731393729,-1,2,29,-9,-1,-1,-2,-1
32731393729,-2,-3,-5,13,3,-2,-1,-2
32731409395,2,4,3,12,-5,-2,-2,0
32731409395,4,2,2,22,2,-1,-1,-1
32731410038,3,3,-16,-41,-4,2,0,3
32731410038,-9,-19,-9,16,1,-1,-2,-1
32731431763,1,2,8,-4,-4,-1,3,3
32731431763,-2,4,-3,11,2,0,-1,0
32731433434,-1,-5,-5,20,0,-2,0,-1
32731433434,3,2,-1,-51,-2,1,1,0
32731445510,-5,-2,-4,4,-1,0,-2,-3
32731445510,-8,1,5,7,0,0,-2,0
32731454364,11,-3,-3,12,-1,-2,1,1
32731454364,-14,4,3,8,2,0,0,3
32731469365,0,-2,7,6,-3,-2,4,-3
32731469365,-1,-4,2,-3,0,0,-11,-3
32731470948,-3,-5,-19,-8,3,0,10,2
32731470948,6,0,-1,-15,0,-3,-3,-2
32731491828,4,6,-1,6,1,4,4,1
32731491828,-8,-4,5,23,0,-2,-4,0
32731493342,-2,4,4,-11,1,-3,-23,-5
32731493342,4,1,-14,-11,-1,3,11,1
32731505415,-5,-1,1,-28,-5,-2,1,-1
32731505415,5,-4,13,4,-1,0,2,-3
32731514424,-5,-3,9,31,-1,-2,7,-1
32731514424,1,-1,-11,-20,-3,-2,-5,-1
32731529311,1,1,-2,10,7,-1,-7,-2
32731529311,0,0,-3,-9,3,5,11,1
32731531005,-5,5,5,68,-8,1,5,1
32731531005,5,2,11,-29,0,0,-5,2
32731551826,0,0,-6,18,4,-3,-4,-1
32731551826,0,-4,-21,-76,-5,0,-2,-1
32731553367,-3,2,19,13,5,4,2,-1
32731553367,1,-3,-10,8,2,-7,-7,-1
32731565486,1,0,-18,-33,-4,3,1,1
32731565486,4,1,13,66,1,-5,-2,1
32731574342,-20,-12,10,-32,1,1,1,-2
32731574342,0,2,-7,8,-4,0,-2,-2
32731589262,-3,-5,-15,-70,3,-3,-2,-1
32731589262,2,-1,12,92,-2,-1,2,-1
32731590980,-3,0,0,-68,-10,-6,-6,-3
32731590980,4,-4,4,27,3,1,2,-1
32731611732,-2,-2,1,40,5,-8,-9,-4
32731611732,0,5,-7,-57,-7,12,-9,3
32731613384,4,1,-13,-5,2,0,14,0
32731613384,-3,0,11,2,-2,-2,5,0
32731634193,3,-4,9,12,-1,1,0,-1
32731634193,-3,0,-19,16,2,-4,-9,-1
32731635834,3,1,-10,-24,2,-2,-5,1
32731635834,2,4,16,52,7,7,2,-2
32731649253,-4,-2,9,-26,-2,0,-4,1
32731649253,-6,0,-7,17,6,-3,4,-1
32731650846,2,3,-4,-5,-11,3,-2,0
32731650846,-2,-4,-10,-25,2,-5,-8,-1
32731671821,-1,2,-4,71,-1,-1,-1,-2
32731671821,1,0,12,-68,-8,-1,2,-1
32731673367,4,3,12,20,1,-1,-1,-1
32731673367,4,-6,-3,-41,-1,-1,-3,-4
32731694405,-1,-2,1,47,1,1,2,-1
32731694405,-3,-6,-3,0,3,-4,5,-2
32731695997,-1,-2,-1,19,2,-1,-7,-2
32731695997,-1,2,-6,-37,-6,-3,-1,2
32731709305,-5,-4,-5,-15,1,1,-1,1
32731709305,7,-4,0,13,-2,0,3,2
32731710992,0,4,9,-10,1,-1,-2,0
32731710992,1,12,-7,25,7,2,5,0
32731731885,-1,-7,12,-6,1,-4,-19,0
32731731885,-3,1,0,-30,-7,3,15,4
32731733530,-2,-7,-13,-6,-2,1,0,1
32731733530,-4,-8,13,36,-2,-1,0,-1
32731754273,0,4,-11,-41,-7,1,0,-2
32731754273,-2,-2,-2,12,2,-4,-5,-1
32731755883,1,-3,-21,38,1,-1,0,0
32731755883,-3,0,13,-8,-7,-4,0,-2
32731768365,1,2,8,24,2,0,4,-1
32731768365,-3,-5,-18,-17,-4,-4,-3,-1
32731776925,1,4,4,-7,1,-1,4,-1
32731776925,-1,-2,9,3,0,3,-1,-1
32731791790,0,0,-6,-28,-4,-1,5,1
32731791790,-2,1,9,35,0,0,0,-1
32731793364,0,-1,-14,-47,-1,0,-3,1
32731793364,1,4,8,23,0,0,3,1
32731814304,1,-7,9,-10,-3,-1,2,-1
32731814304,-2,2,-11,-3,1,-3,-2,0
32731815898,1,4,3,3,2,-1,-2,0
32731815898,-3,-8,-4,-8,-6,-3,-2,-2
32731828576,2,3,-2,-7,-4,0,5,1
32731828576,-3,-2,5,21,3,-1,-3,-1
32731835397,-2,-5,-7,-17,2,-2,-3,-4
32731835397,-1,-1,-20,-17,-2,2,-4,-2
32731851906,0,4,5,12,1,0,7,-1
32731851906,-1,-1,5,-6,-4,-2,-1,-1
32731853454,2,5,2,-14,0,0,-1,1
32731853454,-3,-4,-6,19,-5,0,-1,-1
32731874426,0,1,-6,18,0,0,-1,-4
32731874426,1,-1,1,-19,3,2,-1,-2
32731875915,-2,-2,1,-25,-3,0,2,0
32731875915,-7,0,-2,1,3,-4,-2,0
32731888750,6,-1,8,-1,-2,0,0,4
32731888750,0,2,-7,4,0,-4,2,-2
32731895517,3,-4,-4,7,-6,0,-1,-2
32731895517,1,-1,10,32,15,1,-2,-4
32731911772,-2,2,-11,-18,-4,-2,-2,-1
32731911772,-2,-6,11,5,0,-2,-1,-1
32731913351,1,2,-5,3,-3,-2,-1,0
32731913351,2,0,-11,-40,-2,-1,1,0
32731934435,0,1,8,89,9,2,0,2
32731934435,3,4,5,-102,-3,-2,-3,-3
32731935958,-19,-4,-9,46,-2,-1,0,2
32731935958,-8,-3,13,4,-7,-17,-31,-6
32731948693,4,-2,-13,-22,-1,20,37,7
32731948693,-4,3,15,26,0,-2,-1,-2
32731955526,3,1,2,-23,-1,-6,7,-2
32731955526,10,-5,5,0,2,14,-11,-1
32731971753,-16,-4,-21,-22,-2,-11,-7,-2
32731971753,11,9,7,2,-2,4,7,1
32731973356,-12,-8,-13,30,-2,1,-2,-1
32731973356,-2,0,7,20,-3,-4,10,0
32731994285,7,3,18,-9,-1,-3,-12,-2
32731994285,-1,-2,-22,3,0,5,9,0
32731995959,7,5,30,7,1,-2,-7,-1
32731995959,-3,-1,-56,-22,-2,3,10,0
32732008627,-2,10,87,23,1,-4,-3,-3
32732008627,-7,-3,-29,-14,-5,-4,-12,-1
32732015392,4,-2,-6,0,2,0,1,-2
32732015392,-4,-7,10,-2,-1,0,6,1
32732031762,1,4,-24,-55,-3,-4,-6,-2
32732031762,-3,-5,1,31,1,-1,-1,0
32732033362,0,1,8,-6,-1,-1,-2,-1
32732033362,2,8,5,4,-6,-1,5,1
32732054773,-1,-5,-19,-16,-2,-5,-8,-3
32732054773,-2,-6,-3,99,1,-1,-1,-4
32732056354,3,-4,-6,-36,-3,2,2,0
32732056354,-1,2,21,-32,1,-2,-2,3
32732068754,-4,-6,-14,34,-6,-2,0,0
32732068754,-2,1,-4,27,1,0,0,2
32732075394,1,1,-1,10,3,2,-1,-1
32732075394,8,1,7,-52,-10,-2,1,-2
32732091770,-17,-5,-10,40,4,0,-4,-6
32732091770,6,5,12,-10,-1,-2,1,0
32732093359,5,-5,-8,3,-1,-4,-4,1
32732093359,3,2,-20,-45,-2,-1,3,1
32732114314,4,-8,28,20,-2,4,1,3
32732114314,-6,0,-40,42,4,-3,-4,-4
32732115842,-4,-2,16,-77,2,3,2,-3
32732115842,-3,-5,1,37,-3,-2,-2,-1
32732128044,4,7,-2,-60,-2,0,-3,-3
32732128044,-2,-3,-7,47,-1,-1,1,-1
32732136861,2,2,19,-24,-5,1,1,0
32732136861,-2,7,-17,4,5,1,1,-1
32732151918,-3,-18,13,11,-1,-2,-2,-2
32732151918,3,-2,1,-85,-7,0,0,0
32732153374,3,1,-13,49,1,-1,-1,-1
32732153374,-3,1,36,18,-1,-1,1,-2
32732174404,4,-3,-30,-12,-4,-4,2,2
32732174404,-1,14,16,-35,-2,0,1,-1
32732176027,-6,-6,18,23,0,-3,-2,-1
32732176027,-4,-3,14,2,7,2,1,-1
32732187977,-2,-13,-76,10,-5,-2,-2,0
32732187977,4,22,54,-14,4,1,-1,0
32732196900,1,-2,-24,-23,0,-1,-2,-1
32732196900,3,7,-5,39,-3,-2,-2,2
32732211846,5,-1,-5,-13,5,1,-1,-1
32732211846,-3,-7,3,2,-4,-1,-1,0
32732213362,4,6,4,35,0,2,0,1
32732213362,-4,-16,-26,-6,-5,-3,-1,-3
32732234398,-2,6,8,-29,0,-2,-2,0
32732234398,4,-5,-19,20,3,3,-2,1
32732236027,-6,-1,-26,18,-3,-4,0,-3
32732236027,-6,-1,27,23,-6,1,1,-3
32732248090,3,8,70,4,1,0,-2,2
32732248090,-2,-8,-25,40,-2,-20,1,0
32732256910,-1,2,-21,-84,-1,11,1,0
32732256910,6,9,-8,18,0,1,2,3
32732271778,-9,8,4,20,-2,5,-2,-5
32732271778,-2,-11,-34,-9,2,0,-3,-1
32732273430,-10,-15,9,-105,-13,-10,-3,-5
32732273430,0,7,42,77,6,-3,-2,0
32732294358,-5,0,-5,-18,-4,-10,0,1
32732294358,-8,-6,-36,-39,1,12,0,-1
32732295902,29,4,-9,52,12,-4,-4,10
32732295902,-13,-9,1,-10,2,4,-1,-17
32732307980,7,0,-23,-3,-14,-14,2,8
32732307980,-12,-9,-9,12,-9,-4,-4,1
32732316929,-11,7,41,-87,-3,4,0,-7
32732316929,62,8,-28,42,6,-5,-1,6
32732331781,-47,-3,12,60,9,2,0,-5
32732331781,-3,-6,-30,6,0,7,0,-2
32732333408,0,8,35,27,9,1,-1,0
32732333408,9,-9,-20,-88,-12,-6,-1,11
32732354365,12,4,-17,-34,-1,-4,-3,-21
32732354365,15,-10,30,-39,7,11,2,2
32732356015,-13,2,-8,39,-6,-1,0,-5
32732356015,42,6,59,2,9,3,-1,0
32732367918,11,-6,-73,43,-8,-1,0,-10
32732367918,-47,8,39,-65,-9,-11,-4,7
32732377011,-15,-13,-13,0,8,1,2,-18
32732377011,-6,2,-7,2,-11,3,-5,0
32732391905,12,5,45,20,7,11,13,9
32732391905,12,7,93,86,9,-1,0,0
32732393547,4,-6,-12,-4,-13,-3,-5,8
32732393547,-45,-6,-46,33,0,-4,-13,-9
32732414418,4,7,18,-108,-7,-2,-4,1
32732414418,0,-2,-27,47,-5,-1,-9,-6
32732416027,19,12,46,21,14,8,21,9
32732416027,2,-9,-27,76,1,-14,-19,-5
32732428082,-5,-12,15,-37,1,7,1,3
32732428082,19,-2,-18,-48,10,-1,-22,-1
32732442927,13,11,26,-32,-5,2,4,-1
32732442927,-11,-2,-17,-69,-8,-10,-2,6
32732451055,11,4,-5,42,9,3,0,-7
32732451055,1,2,-4,-63,-14,-10,14,-3
32732457903,42,-1,-27,27,3,5,-15,4
32732457903,-33,-13,-2,-8,0,1,-16,-1
32732474256,-2,12,26,-1,-2,-4,21,4
32732474256,-7,-10,-30,-35,-2,1,8,-1
32732475870,-11,-3,7,58,-4,-5,-2,-1
32732475870,-2,-2,-40,0,-7,1,7,0
32732487918,-9,-2,4,-84,0,1,-7,-1
32732487918,9,1,25,-19,-4,-2,3,0
32732496927,20,-2,-36,58,-4,-6,-2,1
32732496927,-16,4,5,-39,-2,8,10,2
32732511094,4,2,33,50,12,1,-3,3
32732511094,7,-8,-12,-43,-4,-4,-3,-2
32732517894,-57,-13,-76,-37,-7,-1,-2,8
32732517894,19,13,68,72,12,7,9,-5
32732541788,9,-3,-23,25,-1,-4,-12,-1
32732541788,-5,9,-11,-82,-9,-2,0,-3
32732543356,7,4,9,56,-1,0,-1,-3
32732543356,2,-5,11,16,-3,-5,4,2
32732556743,-5,-5,-12,127,24,5,-3,1
32732556743,14,1,20,-16,-35,-2,2,13
32732558360,5,-5,-12,20,4,0,4,-16
32732558360,-9,7,-15,-26,-2,0,4,0
32732571124,9,-7,7,55,-1,-5,-5,-18
32732571124,8,1,-3,92,12,3,-1,-4
32732585386,-14,-1,12,-95,-7,-4,-4,7
32732585386,1,0,5,-85,4,5,6,-2
32732594272,-4,-7,-40,-67,-8,-4,-1,6
32732594272,0,5,18,112,7,-1,-2,-5
32732595919,-8,-6,-6,-26,-6,0,-1,0
32732595919,11,1,3,112,8,3,4,3
32732616765,-43,3,-2,-128,-15,-1,1,2
32732616765,-5,-4,-6,-7,7,0,0,-4
32732618357,1,5,1,-26,0,-1,-1,0
32732618357,4,-3,10,40,0,3,0,1
32732631079,17,-1,-32,21,-3,-8,-5,3
32732631079,13,-1,-1,41,-12,2,5,3
32732637923,-17,4,-7,7,9,2,17,-2
32732637923,-4,-8,3,-12,-1,-15,-26,-3
32732654280,0,4,7,-4,-5,12,17,0
32732654280,-28,3,2,-10,12,5,8,5
32732655923,52,0,-2,-15,-7,3,-25,7
32732655923,-36,-3,-4,-15,-2,9,2,-9
32732676764,3,2,-1,8,1,-15,-1,5
32732676764,14,1,11,-1,10,0,20,-2
32732678380,-10,-4,-9,35,-6,5,-33,0
32732678380,4,6,-10,-59,-2,-7,6,3
32732691109,6,-5,6,-29,-3,5,-9,3
32732691109,-9,3,17,24,2,-3,-1,-6
32732697834,-6,-4,-16,24,3,-7,5,-4
32732697834,4,-4,5,-28,-3,-2,3,-4
32732721780,-1,0,-24,-8,-3,1,2,1
32732721780,6,-2,-11,88,2,1,-12,-1
32732723400,-11,0,-2,-51,-7,-3,21,-2
32732723400,-6,-3,-17,16,0,2,5,2
32732736793,6,3,18,42,0,0,-5,-2
32732736793,13,-2,-11,-19,-7,-5,-1,5
32732738402,7,-6,-4,10,-1,-6,-20,-15
32732738402,6,2,2,-15,1,5,19,-3
32732751096,0,-1,9,19,-6,-2,-4,0
32732751096,1,1,-13,-27,0,-3,-21,-2
32732757900,-19,2,17,57,6,7,20,3
32732757900,21,0,-9,-99,-3,6,-5,3
32732774246,-4,-7,3,61,1,-5,-6,-5
32732774246,-13,-3,-6,-42,-3,-2,-4,-1
32732775881,11,6,12,28,0,-5,-2,1
32732775881,-10,-3,-4,23,2,-2,-8,-3
32732796779,0,-1,-3,2,-5,5,13,2
32732796779,-10,0,4,-17,-1,-5,-12,-2
32732798428,3,-2,6,3,2,-8,38,4
32732798428,12,-2,-2,20,3,0,-18,4
32732819282,-53,-2,6,-24,-1,1,0,-5
32732819282,-1,-1,-8,-8,0,2,-13,-1
32732820943,8,-1,8,16,-3,3,16,4
32732820943,-26,-3,-5,-18,-4,-4,9,-17
32732834313,21,2,0,5,-1,1,-8,-1
32732834313,16,-1,-2,4,1,1,1,-1
32732835881,-20,1,3,-5,0,1,-7,-1
32732835881,3,-5,-2,3,-3,-1,-1,4
32732856555,10,1,2,-5,3,0,-8,-4
32732856555,-1,-3,1,0,0,-5,-7,1
32732863012,22,2,0,-9,-2,2,18,2
32732863012,-14,0,-5,2,-2,0,5,3
32732870591,-6,2,-2,1,2,0,3,-1
32732870591,-2,3,7,-5,-2,1,4,-2
32732879495,-11,-6,12,13,-1,-6,-14,-3
32732879495,-5,-3,-9,-3,-5,-2,-1,0
32732894542,8,0,13,6,1,2,7,1
32732894542,-5,-2,-41,-21,-3,0,3,1
32732896000,-8,-1,4,-4,-4,-5,-17,-2
32732896000,9,-3,6,15,-1,0,7,-1
32732924478,12,10,11,-42,8,-1,-9,2
32732924478,-6,-7,11,90,1,2,6,-2
32732926093,-7,-4,-4,-70,-1,-4,-7,-4
32732926093,-10,-1,-12,-34,-7,-4,-2,2
32732930600,3,1,14,-13,-12,-3,2,4
32732930600,-5,2,0,-14,-5,1,5,0
32732939508,-7,-1,-23,-8,9,4,-3,-1
32732939508,3,0,4,34,4,1,-1,-1
32732954504,0,-4,0,-26,-7,-3,-3,-1
32732954504,0,3,26,24,2,0,6,-2
32732956103,0,-4,-13,40,-2,-1,-10,1
32732956103,2,1,-9,-103,-12,-2,2,2
32732976830,-1,1,25,64,-4,-2,-1,-2
32732976830,0,-1,28,8,1,-3,-1,-3
32732978472,1,4,6,-30,-9,-4,-2,1
32732978472,0,1,-15,-3,8,1,-1,0
32732990571,0,-3,-23,22,-8,2,1,-1
32732990571,-3,-4,-6,-20,-2,-3,1,-1
32732999448,-2,-9,-1,42,-5,-2,-4,0
32732999448,8,16,22,26,-10,-1,0,-2
32733014023,-4,-10,-32,-72,8,1,-2,2
32733014023,1,2,3,16,9,1,3,1
32733020435,-3,-2,-2,-4,7,-1,1,0
32733020435,2,-2,-5,2,-16,-2,1,0
32733052506,1,-1,-1,33,6,1,0,1
32733052506,-3,0,-17,-37,0,-7,-1,0
32733054082,-1,2,5,27,-3,5,0,-3
32733054082,-2,-2,15,-4,-4,1,-3,-1
32733055012,4,4,-14,-21,15,5,-1,0
32733055012,-3,0,25,50,-13,2,-1,-1
32733059458,0,-3,2,-21,14,-2,0,-1
32733059458,-2,1,7,62,9,3,1,2
32733074426,-1,3,-3,-3,-7,0,0,1
32733074426,1,-8,-23,-1,12,1,2,-1
32733075961,0,3,12,-34,-8,-4,-2,1
32733075961,-2,-6,-1,69,6,0,-1,-1
32733096997,0,-2,-1,-26,-11,-4,-3,0
32733096997,2,3,-8,-4,-1,-3,-2,-1
32733098628,0,2,5,26,3,-2,-3,-3
32733098628,-2,0,-4,2,3,4,2,1
32733110575,0,-1,3,11,6,-3,-1,1
32733110575,-2,-4,-9,-100,-15,-2,0,-1
32733119458,2,-2,-9,38,-4,1,-1,0
32733119458,-3,-4,-8,-16,-3,-6,-4,-3
32733134376,-4,-5,7,-7,2,-1,2,-1
32733134376,1,0,-8,-14,8,7,-1,0
32733135904,1,4,11,-10,-5,-3,-4,2
32733135904,-3,-3,5,12,-5,-3,0,1
32733156779,0,-2,-14,67,18,0,0,-1
32733156779,0,4,-1,-78,-7,-2,0,-1
32733158431,-1,-3,-10,29,-1,1,2,0
32733158431,1,-2,2,-12,10,1,1,-1
32733170466,1,0,15,37,-15,-8,-5,-3
32733170466,-6,0,3,25,8,13,9,3
32733179509,1,-2,-3,-57,10,2,-3,0
32733179509,1,0,-7,-42,-7,-2,0,0
32733194405,3,2,2,-3,-13,-1,3,1
32733194405,0,2,13,-12,14,-3,-4,0
32733196113,-1,2,3,10,-4,0,-1,-1
32733196113,4,4,-11,15,6,-4,-3,-1
32733216911,-5,-3,20,4,-2,5,2,-3
32733216911,0,-1,-11,0,-14,-4,1,1
32733218429,-2,-3,-12,-60,-7,0,1,1
32733218429,2,2,-18,48,12,-3,-5,0
32733239477,-2,5,49,-44,1,-1,-4,0
32733239477,-5,-7,-19,-7,-7,-4,-3,-4
32733241121,-2,-1,-10,85,-4,1,2,1
32733241121,2,-3,-42,-97,3,6,2,-1
32733254322,0,-7,-6,-1,-3,-4,-1,0
32733254322,2,2,20,52,-14,-4,0,-2
32733255946,-1,2,15,37,9,-3,-3,-3
32733255946,-7,-1,11,-28,-9,-1,0,0
32733276952,1,0,-18,-38,-5,-6,0,4
32733276952,2,3,-3,-10,18,12,7,2
32733278583,-4,-8,-39,33,-17,-9,-15,-3
32733278583,1,1,16,7,1,8,24,-3
32733290626,-3,-4,-4,-11,-3,-3,-9,-1
32733290626,2,3,-13,0,-4,-3,2,0
32733299496,-1,0,16,-28,-3,-1,-20,0
32733299496,-2,-2,3,-13,4,1,12,-1
32733313977,2,-1,-24,-12,-2,-4,1,-2
32733313977,0,-2,10,-7,-7,-7,-10,-3
32733321994,-3,1,0,-18,5,3,7,2
32733321994,0,-1,15,56,0,-7,-7,-2
32733336875,2,1,-16,-41,-3,1,5,0
32733336875,-3,-2,0,14,3,-1,-6,-1
32733338514,0,-1,1,-17,-1,1,7,-1
32733338514,1,0,11,27,-8,-4,-5,4
32733350573,-2,1,1,48,2,1,2,0
32733350573,-1,-5,-7,23,1,2,-1,-1
32733359465,-1,1,2,-54,-1,-1,4,-3
32733359465,-1,-2,-3,-5,-1,-1,-10,0
32733374487,-2,-3,-2,4,4,3,0,0
32733374487,1,1,-10,-15,-14,-4,-1,-1
32733375988,0,0,13,25,5,1,3,0
32733375988,-1,0,5,12,1,-1,-5,-2
32733396955,-1,-3,-8,5,-1,-1,1,-1
32733396955,-1,1,-5,-22,-6,-3,0,2
32733398629,0,-1,-1,6,-3,0,1,2
32733398629,-2,-1,1,-14,2,2,-3,-1
32733419482,-2,-2,-9,-3,-1,0,0,-1
32733419482,2,-2,3,26,4,-1,0,1
32733420992,2,3,7,-19,-9,-2,1,-1
32733420992,-1,1,-4,8,2,-3,-3,-1
32733433723,1,3,-3,-20,-1,1,0,0
32733433723,-3,-1,5,38,10,2,-1,-3
32733440677,-2,-3,4,-49,-5,0,3,0
32733440677,-2,0,-3,1,-2,0,-2,1
32733456786,0,-1,-2,26,3,1,-2,-2
32733456786,-4,1,0,-25,0,-2,1,-1
32733463185,-2,-4,-9,-7,1,-3,0,-1
32733463185,0,-1,13,17,-2,1,-1,0
32733487079,0,-1,-19,-16,2,-2,-2,-1
32733487079,1,-3,0,17,-4,-1,-5,-2
32733488476,1,1,-3,10,11,1,-1,-3
32733488476,-3,-1,-1,-2,-4,-2,-2,0
32733493846,0,0,-4,-12,0,0,0,0
32733493846,-2,1,6,-30,-7,-3,1,0
32733500658,-1,-1,-1,24,-4,-3,-2,-2
32733500658,2,0,-11,-21,3,-1,-2,0
32733516978,1,0,8,26,-1,-1,1,-1
32733516978,-3,-4,11,-5,0,-1,-2,-1
32733518653,2,-1,-1,-6,-1,0,2,1
32733518653,-1,-2,-4,7,-1,-1,1,0
32733539443,-2,-1,10,6,-1,1,-2,-1
32733539443,0,-1,-3,0,3,1,-1,-2
32733541140,-1,-2,-12,-4,-1,-1,1,0
32733541140,1,0,-9,-12,-5,-1,-1,-2
32733553870,-3,-1,12,22,4,-2,0,0
32733553870,-1,0,-2,-25,-3,-2,1,0
32733560681,-1,-4,5,22,-4,-1,0,-1
32733560681,0,1,-3,-2,-1,0,0,-1
32733577032,0,5,-9,-9,-5,1,0,-1
32733577032,-3,-10,-1,-4,2,2,-2,-1
32733578647,1,-1,-1,4,-1,1,-1,-2
32733578647,0,2,-23,-28,-9,-3,-1,1
32733606836,-1,3,22,-3,6,-1,-1,-1
32733606836,-3,5,8,82,2,-1,-1,-2
32733608489,-2,1,1,-48,-6,-3,0,-1
32733608489,-3,-7,-6,0,5,-1,-1,-3
32733613692,-1,-1,-2,-17,-4,-4,-1,0
32733613692,2,0,-15,-17,3,1,0,-1
32733620606,-2,4,13,44,1,1,0,2
32733620606,-1,2,7,1,-2,1,-1,-2
32733651900,-1,-4,4,0,-3,1,-2,-2
32733651900,1,1,0,30,5,-2,0,1
32733653428,-1,-2,-14,-61,-7,-2,0,-1
32733653428,1,1,-4,-14,-1,-1,-1,1
32733666908,-3,-3,16,21,-3,-2,-2,-1
32733666908,-1,5,-7,-16,-3,-1,1,2
32733668494,-3,-6,5,39,3,-2,-1,-2
32733668494,1,2,7,-30,-7,-4,1,1
32733673640,1,0,3,-21,7,0,0,0
32733673640,0,-3,-25,-4,-5,0,-2,-1
32733697593,-1,3,10,7,1,1,-1,1
32733697593,-1,-1,2,1,-1,1,-1,-2
32733698342,-2,-4,2,29,-3,-3,1,-2
32733698342,-1,8,11,-6,-1,2,1,0
32733699956,1,-1,-12,-27,-2,-1,0,0
32733699956,-2,0,13,25,0,-1,-2,-1
32733719439,-2,0,-15,-20,-4,-2,-1,0
32733719439,0,-5,-2,0,2,0,-2,0
32733721100,1,2,-3,11,-5,-2,0,-3
32733721100,-3,0,21,3,2,1,0,-1
32733733080,0,0,-8,2,-7,-4,0,0
32733733080,0,-2,2,-36,-1,0,-2,-1
32733742040,0,2,1,10,4,-1,-2,-1
32733742040,0,-3,-1,42,0,1,-1,0
32733757042,-1,-4,-15,-35,1,4,1,-1
32733757042,-3,1,6,-10,-6,-4,-1,-1
32733758555,-1,4,15,-5,0,-1,-1,1
32733758555,-2,-8,-3,14,0,-2,1,-1
32733779489,0,-3,-8,-2,-1,1,1,0
32733779489,0,-4,-3,-1,-4,-1,-1,2
32733781016,2,1,1,32,1,0,-1,1
32733781016,0,3,5,-34,0,-3,0,2
32733793066,2,-1,-5,50,-6,-2,-2,-1
32733793066,1,3,-8,-22,4,0,1,0
32733802003,-1,-4,2,7,-4,0,-1,-2
32733802003,-2,-1,-4,-16,-2,-1,0,-1
32733816880,1,1,-6,-14,2,0,0,-2
32733816880,-1,0,0,3,-7,-2,0,-1
32733818566,-1,-2,-12,7,3,1,1,0
32733818566,0,0,1,4,3,1,0,-2
32733846911,0,4,3,11,1,0,-2,1
32733846911,-2,-5,-1,-15,-3,-1,1,0
32733848511,2,1,-3,-4,-3,0,0,1
32733848511,2,-1,-4,2,4,2,-1,-1
32733853711,-2,0,-1,-34,-6,0,-3,0
32733853711,2,0,0,-11,0,-2,-1,0
32733860635,-3,-3,-5,16,-3,-4,-2,-2
32733860635,0,0,7,31,3,0,-3,-2
32733884514,-2,-1,-1,11,3,2,-1,2
32733884514,-1,0,6,-14,-4,-3,-1,-2
32733885959,0,-3,-7,-13,7,3,1,0
32733885959,1,2,2,37,-4,-1,0,1
32733899539,-4,-1,-10,-35,-3,-2,1,-3
32733899539,1,1,2,42,7,0,0,-2
32733901196,1,0,-6,-53,-7,-5,-2,-1
32733901196,-2,0,-3,-9,-1,-1,0,0
32733929413,1,-1,2,1,1,0,-1,-1
32733929413,1,0,10,45,0,2,1,0
32733930959,-4,-2,-17,-32,-7,-2,0,-1
32733930959,-3,1,12,-7,-2,-1,-1,-1
32733936906,-1,-3,0,14,-3,-2,0,-2
32733936906,-1,0,-9,-7,-2,-2,-1,1
32733938648,-1,-1,6,19,3,-2,0,0
32733938648,-1,0,-6,-27,-4,-1,-1,0
32733959492,1,0,-14,58,1,-2,-2,0
32733959492,-1,-2,16,-34,0,0,0,0
32733961046,0,2,8,7,-2,-1,-1,-1
32733961046,-2,0,-10,-4,-3,-2,0,1
32733973729,0,0,2,3,8,2,-1,0
32733973729,0,-1,-7,-9,-3,0,-2,-1
32733980496,1,0,0,6,0,1,0,0
32733980496,-1,-1,5,-13,1,0,0,-1
32734004890,-1,-1,5,2,-3,0,0,1
32734004890,-4,1,-3,5,-2,0,0,-2
32734007397,0,-5,-3,-4,2,0,0,-2
32734007397,-1,1,-9,14,-1,0,1,1
32734019330,1,-1,2,-17,-3,-3,0,0
32734019330,1,5,-2,-11,1,-1,-1,0
32734020916,0,-7,-14,41,-3,-2,-2,-2
32734020916,-1,-1,5,-23,3,0,-2,-2
32734032986,0,-1,3,38,2,1,0,-1
32734032986,-1,2,1,-53,-8,-1,-3,0
32734041911,2,3,-2,7,8,2,-1,3
32734041911,-1,-2,-4,-5,-5,-1,-2,-1
32734056035,-2,-2,1,-1,-1,1,0,-1
32734056035,-2,-5,-4,29,1,0,0,-2
32734064524,0,-1,-7,-11,-4,-2,-1,0
32734064524,0,-1,10,-10,4,1,1,0
32734079366,-2,1,-6,1,-3,-2,-3,-2
32734079366,-3,-1,1,14,-3,-2,-1,-2
32734080973,-1,-1,-6,-36,-4,-2,1,-3
32734080973,-1,-1,-3,15,-1,-5,1,1
32734093123,-1,0,-10,-10,3,1,1,1
32734093123,0,2,-6,3,2,1,-1,2
32734102001,-2,-5,19,6,-1,-1,0,1
32734102001,2,0,0,8,-1,-1,-3,-2
32734116885,0,-1,3,-50,1,0,0,-2
32734116885,-1,-3,-12,9,-2,-1,-1,-2
32734118616,-2,4,9,1,0,1,-1,1
32734118616,0,0,-10,0,3,0,-1,0
32734139515,0,-2,7,-1,-3,-2,0,1
32734139515,1,0,6,16,-4,-4,0,-1
32734141180,-1,-1,-9,-9,3,0,-1,0
32734141180,-2,-2,-1,3,-5,0,-3,1
32734162668,0,-2,-4,-16,0,-1,-2,1
32734162668,0,-2,2,19,7,1,0,0
32734164342,-1,1,4,-1,-1,-2,0,-4
32734164342,-1,-2,-6,-1,2,1,1,-2
32734176929,-1,0,6,-10,-6,0,-2,-3
32734176929,-1,-2,-17,-3,-4,-2,1,0
32734178544,0,6,19,15,1,1,0,0
32734178544,-1,-4,-7,-26,-2,-1,1,1
32734207024,-1,1,4,8,2,-2,-1,1
32734207024,-3,-4,-6,-8,0,1,-1,-1
32734208698,1,2,-6,4,0,0,-2,-1
32734208698,1,-3,-7,11,0,1,0,-1
32734213073,0,0,-1,5,-4,0,1,-1
32734213073,0,0,6,-14,-5,-2,-1,0
32734222081,-2,-2,-5,10,0,1,-1,-1
32734222081,0,-1,5,-4,-2,-2,-3,1
32734237086,0,-2,-2,20,3,3,0,-1
32734237086,-3,0,2,-14,-11,-4,-3,-3
32734238636,-4,-4,-5,-1,3,0,-1,-1
32734238636,-1,0,1,18,-2,-2,-1,-2
32734259346,0,1,3,-13,-1,-1,-1,-2
32734259346,0,-4,5,2,5,0,-1,-1
32734260983,1,-1,-2,6,-6,-2,0,0
32734260983,0,-3,-10,-25,-1,0,0,-2
32734273098,-1,2,0,10,0,-3,-1,1
32734273098,1,-1,-5,-18,1,1,1,0
32734282062,-2,-1,11,6,-2,-2,-1,0
32734282062,0,4,-2,-5,7,0,-2,1
32734296860,-3,-5,-5,-1,-5,-1,-1,-1
32734296860,1,1,1,7,0,-1,0,0
32734298505,0,-1,-4,2,3,-1,-1,-1
32734298505,-2,-1,0,-3,-2,-1,-1,-2
32734319492,2,-2,-1,24,4,2,0,-1
32734319492,-2,0,7,-49,-10,-1,-2,-1
32734320992,-1,1,-12,-6,2,1,0,-1
32734320992,1,-1,2,2,-2,0,0,-1
32734341950,0,0,-3,4,-1,0,0,0
32734341950,-1,3,0,15,1,1,-1,-1
32734343502,0,-2,0,-7,-6,-3,-1,0
32734343502,-4,-2,1,20,-2,-2,-1,-2
32734357078,1,-2,-1,2,-1,-1,-2,-1
32734357078,0,0,-3,1,-1,1,-1,-2
32734358542,-1,-1,4,-11,-2,-1,0,-1
32734358542,0,-1,-7,-2,0,0,0,0
32734379392,-2,1,1,-12,-2,-3,0,0
32734379392,0,-2,0,26,3,1,-1,1
32734381001,1,-2,-9,-60,-2,-1,0,1
32734381001,1,4,8,54,-2,-4,-1,0
32734393231,-1,-1,0,-47,-5,-4,-1,-1
32734393231,0,1,1,12,3,-1,1,-1
32734402038,-4,-2,-4,6,-2,-1,0,-1
32734402038,-1,-2,1,-6,-1,1,0,-2
32734416936,-1,2,-4,6,1,0,-1,0
32734416936,-2,0,4,7,0,1,0,1
32734418548,0,3,-1,9,-2,0,-2,-1
32734418548,-1,0,-7,-33,-4,-1,-1,0
32734439452,1,-1,5,-7,-3,-3,1,0
32734439452,0,-4,-22,-10,1,-2,0,-3
32734441001,-1,0,39,27,3,0,1,0
32734441001,-1,0,-5,-7,-3,-2,2,0
32734462050,-1,0,2,27,3,2,-1,-3
32734462050,0,-3,-10,-52,-8,-3,-1,-1
32734463485,1,3,-12,3,-1,-1,-2,-2
32734463485,1,-1,3,-3,1,-1,1,-1
32734477071,-1,1,1,10,-1,1,-1,-1
32734477071,-1,-4,7,4,2,1,0,0
32734478621,0,-3,-11,27,0,1,1,-1
32734478621,-1,2,6,-32,-9,0,0,0
32734499559,0,1,-8,-2,10,-1,1,1
32734499559,-1,2,11,20,4,-2,-1,1
32734500950,0,-2,-7,-17,-2,-2,-3,0
32734500950,0,0,0,21,4,1,-2,-2
32734529549,3,-4,2,-4,-2,0,-1,-2
32734529549,-1,-3,-7,-7,-2,0,0,1
32734530952,0,1,11,3,-2,-1,-2,-1
32734530952,0,-1,1,-9,3,0,-1,-1
32734536940,0,1,-5,5,-3,-1,-2,0
32734536940,-2,-2,6,8,0,-3,-1,-1
32734538690,-2,4,-3,-2,-2,-2,0,-1
32734538690,-1,-6,-2,6,-3,-1,-1,-2
32734559413,-1,-4,-4,-19,-5,1,0,-2
32734559413,0,2,-3,16,4,-1,-2,1
32734560997,0,-1,-2,-20,-3,0,-1,-1
32734560997,0,0,2,-9,-1,-5,0,0
32734582028,1,0,-5,24,4,-1,1,1
32734582028,-1,1,4,-29,-10,-5,-1,-1
32734583570,0,-1,-2,14,3,-1,-2,0
32734583570,-2,0,0,4,5,3,-2,1
32734596373,-2,-3,2,-10,-3,-1,1,1
32734596373,1,0,-4,11,5,-1,-1,0
32734603084,0,2,-3,5,-4,-4,-1,1
32734603084,-2,-3,6,-4,-2,-5,-2,-1
32734619479,-2,-1,0,0,0,-4,-2,-2
32734619479,-1,-2,-4,-15,-1,0,0,-2
32734620984,-3,-5,-4,7,-2,0,-1,0
32734620984,-1,1,-3,46,4,0,-2,1
32734641965,-3,-1,4,-42,-8,-4,-2,1
32734641965,-2,-2,3,9,0,0,-1,0
32734643599,2,-4,-9,-4,2,0,-1,-1
32734643599,2,0,-4,5,-3,-1,0,0
32734664417,-1,0,1,0,-2,0,1,-1
32734664417,-1,5,-2,10,2,-3,0,-1
32734665947,-1,-7,0,-29,-6,-1,0,-2
32734665947,0,0,-7,-17,-2,0,1,1
32734679520,-1,-1,5,64,1,0,-2,0
32734679520,-2,-2,-2,-51,-2,1,0,-1
32734680966,-2,2,3,13,2,-1,0,1
32734680966,2,1,-9,-15,-1,-2,-2,0
32734709544,0,-2,2,-6,0,2,1,-1
32734709544,1,0,-1,20,-1,-2,-1,-1
32734710960,2,-1,-16,-17,-5,-4,1,0
32734710960,-1,-1,13,8,2,-1,1,2
32734715974,-1,-1,3,1,1,-3,0,0
32734715974,1,0,-4,6,0,2,-2,-2
32734724533,-1,-1,-2,-19,-2,0,0,-2
32734724533,1,2,0,21,-3,-2,-2,-1
32734739509,-2,-4,-7,-17,0,2,-2,-1
32734739509,0,-2,5,15,3,2,-12,-1
32734741036,-2,0,-7,5,1,0,-28,-1
32734741036,0,1,-2,-15,-5,-1,-15,-1
32734761279,2,0,-2,-23,4,-1,-10,-1
32734761279,0,-1,-2,21,-4,1,3,0
32734762002,1,-1,7,8,5,2,8,0
32734762002,-3,-1,2,-17,-3,-2,6,-3
32734784538,-2,-2,-11,-10,1,-3,5,-1
32734784538,-1,1,3,-8,3,1,8,0
32734785316,-1,-1,0,21,2,0,8,0
32734785316,-2,-3,-2,-10,0,0,5,-2
32734807068,0,2,-2,1,-1,0,6,-1
32734807068,0,-2,-2,6,-2,-4,-2,-1
32734807731,-1,0,8,-1,1,-2,2,0
32734807731,-1,1,-8,-2,1,1,1,1
32734821221,-2,-4,8,5,-2,-3,0,-1
32734821221,-4,-2,-10,-20,-3,3,-1,1
32734821996,-1,2,0,15,-1,1,5,1
32734821996,-2,1,0,12,-1,-1,0,-1
32734835675,2,0,-1,-24,-2,1,-1,-1
32734835675,0,0,-3,-10,0,-2,2,1
32734851425,0,-2,17,18,1,2,4,0
32734851425,0,-3,-1,19,2,-2,1,-2
32734858761,-1,4,9,6,-3,2,0,0
32734858761,-2,-4,-5,-31,2,1,-2,-2
32734859549,-4,-1,-15,2,-4,-1,-1,0
32734859549,-2,3,7,54,3,1,-2,-2
32734881212,-2,-8,1,-33,-8,-1,-2,-3
32734881212,0,2,3,-23,3,0,1,-1
32734881990,3,3,-4,-2,1,-1,-1,-3
32734881990,0,-2,-9,-18,-2,-2,-1,-1
32734897073,1,1,-7,19,0,0,0,-1
32734897073,-1,-2,5,22,-4,-3,1,0
32734903806,-1,-6,-12,-20,-7,-2,-4,0
32734903806,-1,-1,3,-16,-1,0,0,0
32734918622,-3,-1,-3,17,2,-1,0,1
32734918622,-6,0,0,-2,-4,-2,-4,0
32734926482,-7,-1,2,3,-1,-1,-1,1
32734926482,0,0,2,-8,-6,0,-1,-2
32734941451,2,-2,-11,1,1,1,-3,0
32734941451,-2,-1,4,6,-3,-1,0,0
32734942014,3,-1,-2,-4,-4,0,0,-1
32734942014,1,-3,-10,-12,1,1,0,0
32734955718,0,2,6,6,1,-2,-2,1
32734955718,4,-2,-3,10,1,0,0,-1
32734963907,1,1,-6,-7,0,-1,-1,0
32734963907,4,-2,10,5,1,2,1,-1
32734978908,0,3,-12,-13,1,1,-1,-3
32734978908,-2,2,6,3,-4,-3,1,0
32734979525,-1,1,1,-6,1,-2,-1,0
32734979525,-3,-1,-4,-11,1,0,-1,-1
32735001249,-1,0,2,8,-2,-1,0,-1
32735001249,0,0,2,-5,-1,0,-2,-1
32735002060,2,-3,-2,67,1,-1,1,-2
32735002060,-2,-2,-5,-80,-5,-2,-3,-2
32735015533,-2,0,5,25,0,1,-1,0
32735015533,0,0,-6,3,-1,-1,0,-1
32735023707,0,0,4,-20,3,1,-1,-2
32735023707,-1,-1,-4,25,0,-1,1,-1
32735038898,0,0,-2,-2,2,-1,-1,0
32735038898,-2,-2,0,-8,2,-3,-3,-1
32735039527,0,3,2,11,2,-1,-1,2
32735039527,1,-1,-2,-12,-1,-1,-2,1
32735061325,-2,3,0,2,-3,-1,-2,-1
32735061325,1,0,1,19,-1,0,1,-1
32735062013,-3,-2,4,-18,2,0,1,-3
32735062013,0,1,-2,45,1,-1,-2,0
32735075563,2,-2,-6,-54,-4,0,1,1
32735075563,1,-2,1,15,-3,-1,0,-1
32735083854,-1,1,2,-2,-3,-2,0,1
32735083854,-2,0,-1,-20,-3,-2,0,0
32735098848,0,0,-2,29,0,-2,3,-2
32735098848,0,0,-4,6,9,2,-1,-1
32735099520,0,-2,-13,-34,-3,-1,-1,0
32735099520,-1,-5,5,9,2,-1,0,-1
32735121284,0,0,5,-6,-1,0,-2,0
32735121284,1,2,-1,31,0,-1,-3,-2
32735122061,6,-4,-3,-37,-7,-2,0,-1
32735122061,3,-1,2,-1,-2,2,-1,1
32735135562,5,3,-1,-8,-4,-3,-2,0
32735135562,4,-3,-3,23,-1,1,-1,-1
32735143905,-1,0,-3,-8,0,-2,-4,-1
32735143905,-2,-1,5,-15,1,-1,1,-2
32735158868,-6,-3,1,14,2,1,0,0
32735158868,2,3,9,1,-1,0,0,-3
32735159531,0,-2,-9,-3,-2,1,0,0
32735159531,1,1,3,-15,-1,-1,-1,0
32735181177,-1,-2,-4,6,-3,-2,-2,0
32735181177,-4,-3,-9,6,-4,-1,-1,1
32735188929,-9,1,-4,-25,0,1,-1,-1
32735188929,-8,0,-13,19,3,0,0,-1
32735195689,-9,2,-45,-10,-3,-3,0,3
32735195689,-10,-2,-16,-9,0,1,0,0
32735203951,-5,0,7,0,0,-1,-1,-1
32735203951,0,0,15,13,2,1,-1,0
32735218703,0,-4,26,18,0,0,-3,-2
32735218703,3,-6,5,-18,-2,-2,0,0
32735219502,-1,2,38,23,1,2,-1,0
32735219502,1,2,-4,-15,-4,-1,0,-3
32735249388,-2,-1,7,16,0,-1,-1,-1
32735249388,1,1,-4,-5,-2,0,-1,-1
32735250240,0,-4,-10,-57,-4,-2,0,-2
32735250240,-1,-3,1,34,-2,-3,-2,-1
32735280658,-4,0,4,-3,5,-2,0,1
32735280658,-4,0,3,13,0,-3,1,0
32735282352,-1,-2,-2,-10,2,-1,1,-1
32735282352,-2,4,-4,31,3,-1,0,0
32735283105,-2,-3,13,-58,-4,-1,0,0
32735283105,-2,-3,9,7,0,2,-1,-1
32735286218,2,13,-6,20,1,-1,-3,-1
32735286218,-1,8,0,-25,-4,-1,-1,-1
32735308536,3,7,3,45,2,1,-1,-3
32735308536,-7,2,2,-52,-4,-1,1,-1
32735316892,-28,-6,7,24,6,1,-2,-1
32735316892,-26,-6,-8,13,3,-1,-1,0
32735318527,-17,-1,-5,-13,4,-1,0,-1
32735318527,-2,-13,1,-6,-2,0,0,-3
32735323736,13,-7,-3,52,0,-1,0,-2
32735323736,11,-4,-2,-55,-7,-2,-1,-1
32735338698,7,-5,2,10,-7,1,1,0
32735338698,6,0,-7,-7,10,1,1,0
32735339483,7,1,-5,21,-4,0,-1,1
32735339483,6,-3,4,41,3,2,0,-1
32735362740,9,-2,-13,-43,-5,-1,0,1
32735362740,5,2,9,-4,-3,0,0,0
32735363557,6,-2,-5,5,-3,-2,1,-2
32735363557,6,-2,-2,-1,-4,0,-2,1
32735384367,2,-2,-4,11,3,0,-1,-3
32735384367,3,4,-2,-10,-2,-1,-2,-1
32735385275,5,2,0,-19,-3,-1,0,0
32735385275,5,1,0,35,6,1,-1,1
32735398749,2,-1,-1,-65,5,1,-1,-2
32735398749,0,0,3,66,-4,-2,-1,0
32735399516,0,-1,2,-32,-1,0,2,0
32735399516,-1,2,3,-13,0,-1,-1,-2
32735421256,-1,-1,-2,32,2,0,-3,-1
32735421256,0,1,-7,-9,1,-2,0,-2
32735421985,0,-4,-6,1,3,1,-1,0
32735421985,0,2,1,10,-3,-1,0,-1
32735444180,1,-1,-4,-3,0,-1,0,-1
32735444180,-4,0,13,-8,-3,-3,1,0
32735445024,-3,-2,0,17,-2,-2,-1,2
32735445024,0,-4,-1,-40,0,0,0,1
32735458713,-3,-3,-2,21,-4,-1,0,-2
32735458713,-3,1,-6,-4,-1,1,-1,1
32735459501,-2,0,1,-5,-1,-2,0,-2
32735459501,1,0,0,-13,0,-1,0,2
32735481273,1,3,1,14,3,-1,-2,-2
32735481273,1,0,-4,-18,-4,-1,-2,-2
32735481986,0,3,2,50,1,0,0,-1
32735481986,3,0,-4,-60,0,1,-2,-1
32735504435,-2,1,5,35,-1,0,1,-2
32735504435,1,-2,-20,-44,0,0,1,0
32735505310,0,0,4,-7,-2,-3,-2,-3
32735505310,-1,-3,-10,27,4,-1,0,0
32735518954,-2,0,2,-2,0,0,0,1
32735518954,-3,-2,-4,-7,-3,-1,-2,0
32735519569,-3,-2,-21,3,-5,-3,-3,2
32735519569,-4,4,22,-10,-5,-2,0,0
32735541445,-9,-1,4,22,5,0,0,-2
32735541445,-10,0,6,0,-10,-3,-1,-1
32735542097,-6,-3,-1,-3,-1,2,1,-1
32735542097,-6,-3,-8,-1,-3,-1,-1,-1
32735564569,1,-2,1,-17,-4,-2,0,0
32735564569,2,1,2,17,4,-1,0,0
32735565284,2,-1,11,3,2,-2,-4,0
32735565284,3,-3,-15,-18,-4,3,-2,0
32735578839,-1,-2,0,-12,0,1,-1,1
32735578839,1,0,1,22,1,-1,-1,-1
32735579584,2,1,-3,33,1,0,5,0
32735579584,0,0,8,-70,-2,-3,9,-1
32735601430,3,-4,-6,-19,-4,-1,8,1
32735601430,1,-1,2,19,-1,0,-3,-1
32735602030,2,-2,-2,-7,0,0,-14,-2
32735602030,0,-4,-5,23,0,1,-14,-2
32735631742,2,2,-13,9,-3,-1,-6,-2
32735631742,1,-1,21,-10,-1,-3,-2,1
32735632474,3,0,-4,-1,1,0,-2,-1
32735632474,-1,-1,0,-7,-7,-2,-1,-3
32735640259,-2,-1,-4,-11,-4,0,-11,1
32735640259,1,-2,-9,9,1,0,-10,0
32735641172,-6,-2,3,-10,0,-2,-12,0
32735641172,-2,0,-3,8,1,1,-9,1
32735661361,1,-1,1,3,-2,-2,-2,0
32735661361,1,0,-7,-3,1,0,6,-2
32735662072,-1,-4,3,10,-2,-4,10,-1
32735662072,1,3,-5,-37,2,2,17,-2
32735684689,2,1,8,22,-2,-2,13,0
32735684689,-1,-2,-3,3,4,0,6,-2
32735685260,1,0,-6,-43,-4,1,3,-1
32735685260,-1,-1,3,58,0,-2,-1,0
32735698956,1,-2,0,-4,-2,-1,-4,-1
32735698956,1,2,1,-13,-4,-1,0,-1
32735699528,1,-5,-1,-13,-2,-2,1,0
32735699528,2,2,3,57,5,1,-2,1
32735729593,-1,1,-9,-63,-5,-2,0,1
32735729593,-4,-2,23,27,5,-2,5,0
32735730275,-2,0,4,13,2,1,5,0
32735730275,-2,-3,-6,-15,0,-1,3,1
32735744547,0,-3,-3,26,1,0,0,0
32735744547,-1,0,-6,-6,2,1,-2,1
32735745322,-1,1,-4,-21,-4,-2,0,-1
32735745322,0,0,-4,17,-4,-2,0,-1
32735758883,0,2,14,-6,3,2,0,-2
32735758883,0,2,-2,-4,-2,0,1,1
32735759595,-3,-2,-4,-6,1,0,1,-1
32735759595,-2,-2,-11,1,-2,-2,2,-2
32735781391,-3,-1,2,9,-1,-1,-1,0
32735781391,3,0,-7,-17,-2,1,-3,-1
32735782048,3,1,-7,-7,1,0,-2,-1
32735782048,3,-2,7,-2,-4,-1,-5,1
32735804627,0,0,-5,40,1,0,-2,1
32735804627,0,0,1,-39,0,0,-1,0
32735805271,-2,0,-3,-1,-4,-1,-2,1
32735805271,-3,-1,4,0,1,0,-3,-2
32735827031,-4,-3,-3,-8,1,0,-4,-1
32735827031,-3,-2,-6,12,-1,-1,-5,0
32735827749,-3,-2,1,6,3,2,-2,0
32735827749,-3,1,4,-16,-1,0,-1,0
32735841477,0,-2,-13,1,5,1,0,-1
32735841477,-5,-3,5,21,-1,-1,-1,-1
32735842057,-3,-4,0,-21,1,0,0,-2
32735842057,-2,-2,1,11,-3,-1,1,-2
32735864625,-1,-2,-1,-7,-1,0,1,-1
32735864625,-1,2,-7,-3,-7,-1,-1,-2
32735865313,1,3,5,8,-4,-3,-2,0
32735865313,0,2,-3,-1,1,1,-3,-1
32735878818,-1,1,8,-7,-9,-3,0,-4
32735878818,-1,-2,-2,9,1,-1,1,0
32735879548,-3,-1,-5,-3,-2,-2,2,0
32735879548,-3,-5,7,13,0,-2,0,0
32735916994,2,-3,2,-9,0,0,-1,1
32735916994,2,-9,-3,-7,0,1,-1,0
32735917820,0,4,9,27,1,3,0,0
32735917820,2,1,-15,-21,-1,1,1,-1
32735924621,-3,4,2,-3,-2,-1,1,-2
32735924621,0,5,-10,-6,3,-2,-4,-1
32735925298,-1,5,17,-5,1,-1,-1,-3
32735925298,-4,2,-2,-1,-2,-2,-1,0
32735938866,-3,3,4,2,1,-1,-2,0
32735938866,-1,-2,-8,-2,-3,0,-2,33
32735939574,-1,-4,2,-22,-2,-2,-2,31
32735939574,-1,1,3,24,3,0,1,19
32735962039,-2,-6,-2,7,0,-1,0,5
32735962039,-1,-3,-4,-18,3,0,0,-17
32735962771,0,-2,-7,39,-7,-1,-2,-17
32735962771,0,-4,6,-42,0,1,-3,-14
32735984503,0,-1,-3,-1,0,-2,-1,-13
32735984503,0,2,3,11,2,-1,-2,-10
32735985315,1,-2,-3,-3,-1,1,2,-7
32735985315,0,-2,1,17,-4,0,1,-6
32736006890,-1,-1,-3,-11,-1,0,-1,-2
32736006890,-2,-2,-4,0,-5,-1,-2,-6
32736007712,1,-1,-3,-5,2,0,-1,-3
32736007712,-3,-4,-3,14,-7,-3,-3,-3
32736021936,1,-2,13,-8,1,2,1,-1
32736021936,-3,-2,-1,-1,-4,-3,0,0
32736022742,-3,-3,-6,-16,1,-2,-1,-4
32736022742,1,-1,-7,-5,3,0,-1,-2
32736044832,-1,-3,3,9,-6,-1,-2,0
32736044832,0,0,2,3,2,1,1,-2
32736045597,1,-1,-1,-16,-1,-3,-1,-2
32736045597,1,1,-6,5,1,-3,-1,1
32736058167,0,3,5,12,0,-1,1,3
32736058167,0,2,-1,7,-2,0,0,-2
32736066501,-1,-1,-2,20,1,1,0,2
32736066501,0,0,3,-73,-6,0,0,2
32736082118,-2,-2,-19,29,2,0,-1,1
32736082118,-2,0,4,-11,-3,-2,1,0
32736082727,-2,0,0,4,7,-1,0,-1
32736082727,1,0,7,15,2,1,-1,-1
32736112107,0,-2,-12,-15,0,-3,0,-1
32736112107,-2,-3,-1,21,-1,-1,-1,-1
32736112758,-1,-4,-3,-21,-4,0,-1,-3
32736112758,0,-2,-1,-8,-1,-1,0,-1
32736128438,0,-1,3,-8,0,1,0,-1
32736128438,-1,-1,3,17,1,1,-1,-3
32736129334,0,0,-2,-3,-1,-1,-1,-1
32736129334,0,-1,2,14,-2,0,0,0
32736149772,-4,-4,-6,-26,-6,-2,-2,2
32736149772,2,0,4,4,0,1,1,1
32736150354,-1,-1,-4,1,-2,-1,0,0
32736150354,-2,-1,-1,3,-1,1,-2,0
32736164504,0,5,7,1,-2,-1,-1,-2
32736164504,-2,-1,-9,-7,-2,-1,0,-1
32736165254,-3,1,2,8,-2,0,1,-1
32736165254,-1,-1,-9,23,1,-2,0,1
32736186766,1,0,11,-26,0,-1,2,-2
32736186766,-1,1,-17,-14,0,-2,-1,-2
32736187509,-1,5,9,1,-3,0,0,-1
32736187509,-2,0,3,1,1,1,0,-2
32736202166,-2,1,-4,6,-1,0,-2,-1
32736202166,1,2,-3,-15,0,0,0,2
32736202805,-1,17,-1,5,0,-2,-1,0
32736202805,-1,28,1,3,0,-3,-1,0
32736224647,-1,25,-7,26,1,-1,-3,1
32736224647,-1,21,2,-33,-6,-3,0,2
32736225239,0,10,-6,16,-2,-2,0,-1
32736225239,-3,2,8,-13,0,-1,2,-1
32736238123,-1,-3,-3,12,2,-4,0,1
32736238123,-2,-9,2,20,3,1,0,-2
32736246477,-3,-16,-2,-44,-5,0,-2,0
32736246477,-1,-13,-2,-8,-7,-2,0,1
32736262596,-3,-16,7,-4,1,0,1,-1
32736262596,0,-14,-7,3,0,-1,-1,1
32736263249,0,-9,-3,-2,0,-1,-1,-2
32736263249,0,-10,1,21,3,-1,-2,1
32736284521,-1,-8,0,-9,0,1,-3,-1
32736284521,1,-4,5,4,0,-1,1,-1
32736285317,2,-5,1,9,-2,1,0,0
32736285317,0,-6,-1,-8,4,1,0,0
32736298288,0,-6,-4,23,1,0,1,-1
32736298288,-2,-1,4,-12,0,-1,-1,-5
32736306419,1,-3,-7,-29,-3,0,-1,-1
32736306419,-1,-1,-1,25,3,-1,0,-3
32736329662,-1,0,1,-15,-1,-2,0,-1
32736329662,0,0,2,22,4,-1,-2,1
32736331259,-2,-3,3,16,-2,-3,-1,0
32736331259,0,-6,-10,-34,-4,-1,-3,0
32736344562,1,-2,-13,-16,-1,2,0,-2
32736344562,-2,-3,10,28,-3,1,-2,0
32736346117,1,-3,0,6,4,1,1,1
32736346117,0,-2,-5,51,0,-3,1,-2
32736358142,-3,-3,-10,-61,-6,-6,-2,1
32736358142,2,2,2,-12,-4,-7,-1,0
32736391676,-1,1,0,-16,-2,-7,-1,-2
32736391676,0,2,4,43,5,-6,-3,-1
32736392654,-1,3,4,-12,3,-3,-1,0
32736392654,-4,1,-1,-29,-1,-5,4,-2
32736395797,0,-3,3,25,2,-2,-1,-2
32736395797,-2,-6,1,-23,-3,-2,-1,-2
32736404541,-1,-6,5,25,0,-1,0,-1
32736404541,1,-5,1,-5,-1,1,-1,1
32736406118,0,-5,-1,-4,2,1,0,0
32736406118,-2,-2,1,-5,-2,2,0,0
32736426192,1,-2,5,11,-2,1,0,2
32736426192,-1,1,0,6,1,2,-2,-1
32736434742,1,-2,-8,-21,-1,2,-2,0
32736434742,1,-1,-15,-24,-3,3,-1,1
32736442023,2,1,9,24,4,4,1,1
32736442023,-1,-2,-21,-10,2,2,0,0
32736443597,-5,1,12,32,-2,0,1,-2
32736443597,-2,-2,-1,-12,4,1,0,-1
32736472060,1,-3,-3,0,-6,2,-2,-2
32736472060,-1,1,3,-5,-4,1,-1,-2
32736473592,0,0,1,-8,-3,1,0,0
32736473592,-1,-2,0,-9,-4,0,1,-1
32736494682,-1,0,2,3,-4,-2,1,1
32736494682,1,0,3,-15,-4,1,1,1
32736496275,-2,-3,-3,4,-2,-1,-2,-2
32736496275,-1,1,5,2,-1,-3,1,0
32736502180,-1,-1,0,11,3,-2,-1,-2
32736502180,-1,-1,0,29,1,-2,-2,0
32736503602,-1,3,0,-48,-3,0,0,-1
32736503602,-1,-1,0,7,1,1,0,0
32736524647,-2,0,-1,8,0,-4,-2,-1
32736524647,-2,-4,-3,-10,1,1,0,-3
32736532255,0,0,-3,23,1,0,-2,-2
32736532255,0,0,-7,-7,-2,0,-1,-2
32736546992,-1,0,23,-5,-6,-1,0,0
32736546992,-1,4,-3,17,2,0,-1,-1
32736548578,0,1,-7,-7,-1,1,-1,1
32736548578,-2,1,14,-5,-2,-1,1,0
32736561412,-3,-2,-29,-5,4,2,-1,0
32736561412,-1,0,7,-3,-4,0,0,1
32736575841,-4,-2,3,6,1,1,0,-1
32736575841,1,-1,-4,8,-3,1,0,1
32736592193,1,2,0,23,5,0,-1,0
32736592193,1,0,0,-55,-1,-2,0,-1
32736593617,-1,1,-3,12,0,-3,0,1
32736593617,1,-2,-3,-23,-2,-1,-2,-2
32736607159,-1,1,8,4,-2,1,0,-1
32736607159,1,0,1,24,1,1,-1,-1
32736608681,0,1,-2,-7,-4,1,-6,-1
32736608681,-2,0,-2,-7,0,0,-12,-1
32736621360,1,-1,-5,-22,-4,-1,-14,-3
32736621360,-3,2,7,20,2,0,-9,-2
32736628202,0,-2,4,2,-3,1,-1,-1
32736628202,0,1,-12,-16,-4,0,5,1
32736644673,0,-1,1,8,2,0,5,-1
32736644673,-2,-7,-10,-7,-1,-1,2,-1
32736646135,0,4,1,14,-3,-3,4,0
32736646135,-1,1,2,5,2,1,4,-2
32736667185,-1,1,1,-2,-3,0,5,-1
32736667185,1,1,-9,-5,0,-3,2,1
32736668660,0,-1,16,-9,3,0,1,-1
32736668660,0,0,-5,12,-3,-1,2,-2
32736681454,-1,-2,-4,-3,-4,-2,2,-1
32736681454,-2,0,1,-5,0,1,-2,0
32736695782,0,0,-8,7,-1,-2,-3,2
32736695782,0,2,1,22,7,0,-1,0
32736704387,-3,0,-5,-28,-8,-1,2,-2
32736704387,-1,0,0,7,4,0,0,-1
32736712156,-1,-4,-5,-1,-1,2,1,0
32736712156,0,-4,2,-12,1,-2,-3,-1
32736727162,1,0,-1,4,-4,-3,-2,-1
32736727162,-1,2,4,3,-1,-1,0,-2
32736728626,-1,1,-2,7,0,-2,0,-2
32736728626,-1,0,0,-6,-2,0,-3,0
32736749528,1,1,-1,-3,3,1,2,-2
32736749528,0,-2,-2,7,-2,-2,0,0
32736751118,0,-3,-3,-11,-1,0,-1,-1
32736751118,1,0,-2,-14,-2,-1,1,1
32736764250,1,-4,-7,32,5,0,-1,-1
32736764250,0,-2,-4,-27,-6,-2,1,0
32736770588,1,1,6,-8,11,1,-1,0
32736770588,-2,0,-4,4,-6,-1,-1,-2
32736794498,-2,2,2,-4,4,-1,-2,1
32736794498,-2,0,-9,28,-2,-2,-1,1
32736796088,-2,-1,2,-5,-3,-1,0,-1
32736796088,-1,-1,-5,2,0,-1,2,0
32736809440,-3,1,5,-13,-1,1,0,-1
32736809440,-2,-3,-1,-3,-1,-1,0,0
32736811042,-1,1,-3,-5,-2,-2,1,-1
32736811042,-1,-4,0,6,0,-3,-1,-1
32736824441,0,2,-1,9,-5,-2,-1,-1
32736824441,0,-1,-8,-13,2,0,-3,-2
32736826027,-1,0,-5,12,-2,-1,-2,-1
32736826027,-1,3,7,-2,-3,-1,2,-1
32736854469,-2,0,1,0,9,-1,0,0
32736854469,0,3,17,4,0,-2,1,0
32736856064,-1,-4,-8,-11,1,1,-1,-2
32736856064,-2,4,4,-9,-1,-1,-1,0
32736861308,-1,-1,4,32,0,-4,-2,-1
32736861308,-2,-2,5,-24,-5,-1,1,0
32736868087,-1,-2,-10,-8,1,-2,0,0
32736868087,-1,-3,16,-5,-3,-2,-2,-1
32736884600,0,0,-3,-2,0,1,-1,-1
32736884600,0,0,2,9,-1,1,-1,-1
32736886264,-3,0,4,-11,-4,1,-1,-1
32736886264,-1,-4,-7,3,0,-1,0,1
32736907153,-1,-2,3,-2,-3,-1,-1,2
32736907153,1,-3,0,4,-2,0,-1,-1
32736908737,0,-3,-2,-13,-1,2,0,-1
32736908737,-1,10,0,36,2,-1,-1,-1
32736937108,0,10,-6,-4,7,4,0,-1
32736937108,-1,11,1,-28,-6,-3,-1,0
32736938631,-1,7,-5,16,-1,-3,0,-1
32736938631,-1,0,-4,-17,-2,0,-2,0
32736944641,1,-4,-6,-1,-2,-2,-1,2
32736944641,0,-3,-3,13,1,0,-1,0
32736946273,-1,-4,9,11,1,0,-1,1
32736946273,0,-6,-9,-10,-3,-1,0,-1
32736967144,-2,-4,4,-9,-3,-1,-1,-1
32736967144,0,-8,-7,-4,-4,4,1,-1
32736968810,-3,-2,3,3,-4,-1,-1,0
32736968810,3,-4,-8,10,5,-1,-3,0
32736980855,-4,-8,20,-2,-4,-4,-2,-1
32736980855,-1,1,2,9,7,0,-1,-1
32736989674,0,-4,-12,-3,0,0,1,-1
32736989674,3,-1,6,6,-1,1,0,0
32737004518,18,-2,-23,2,-5,-2,-1,0
32737004518,21,-2,-7,-38,-4,-3,0,-1
32737006233,18,-1,17,37,1,-2,-3,-2
32737006233,14,-5,-9,-35,2,1,1,0
32737026990,-5,5,5,3,2,1,-1,0
32737026990,-12,-8,8,58,1,-2,-1,0
32737028633,-14,2,-10,-48,-8,-2,-3,1
32737028633,-19,-7,-10,-23,2,0,-1,-2
32737040604,-3,3,5,13,3,1,-2,3
32737040604,-2,4,-37,-43,-1,-2,0,2
32737049644,1,5,37,102,5,-3,1,-1
32737049644,-1,-1,-18,-53,-4,1,0,1
32737064490,-5,-1,15,19,3,1,0,-4
32737064490,-7,-3,-20,-25,-2,0,-1,-1
32737066156,-3,-4,-8,-4,-3,-1,-3,0
32737066156,2,6,35,39,1,-2,1,-1
32737087170,-9,-6,-33,-1,-6,-4,-1,-2
32737087170,-8,-1,21,22,0,2,3,0
32737088788,-2,-4,-23,-51,1,-4,-3,-2
32737088788,1,1,8,8,-2,1,-1,0
32737100742,-1,-3,-9,-7,1,1,-1,0
32737100742,1,3,12,-9,-1,-5,-7,0
32737109678,-1,0,4,22,6,2,1,1
32737109678,-3,-2,-3,1,-1,-1,-3,0
32737132029,2,0,3,-5,-4,0,0,0
32737132029,-2,0,-4,6,0,1,-3,-4
32737133661,0,1,-1,-6,-3,0,0,0
32737133661,-2,0,-2,54,-3,-4,1,-1
32737147029,-2,-1,2,-59,-3,1,2,0
32737147029,4,-1,4,-3,-1,0,0,-1
32737148756,-2,-5,-2,4,3,2,0,-1
32737148756,-4,-2,1,14,-4,-2,0,1
32737160652,0,0,0,-1,1,-1,0,0
32737160652,-1,-1,6,7,-2,-1,0,-1
32737169686,2,1,-8,-19,-1,-1,1,0
32737169686,-1,1,-12,-9,-4,-1,0,-1
32737184549,1,1,15,21,0,-1,-1,0
32737184549,1,0,-4,-29,-1,0,0,-2
32737186191,-1,3,-3,21,3,1,2,-1
32737186191,0,-2,-6,-9,0,-2,-1,0
32737206975,-1,-2,-4,-2,-3,-1,-2,-2
32737206975,-3,-4,-3,14,3,0,2,0
32737208570,-1,3,0,13,-8,-1,-2,0
32737208570,0,1,18,-28,-1,2,1,-1
32737220714,0,-1,-1,-3,3,0,-2,-2
32737220714,-2,-1,0,-6,-8,0,-1,1
32737229629,0,-1,-5,-13,1,-1,0,-3
32737229629,-1,0,-8,1,0,0,-2,0
32737244437,-1,2,-2,-20,0,0,1,0
32737244437,-1,2,6,34,1,-2,0,-2
32737250705,-2,-2,-3,-4,-4,-3,-1,-2
32737250705,1,1,0,-1,-1,1,-3,-3
32737267057,0,-1,-4,-1,2,0,0,0
32737267057,-1,0,1,0,-2,-1,-1,0
32737268689,1,-1,-1,26,2,0,0,1
32737268689,-1,1,0,-29,-1,-2,-1,-1
32737280678,-1,0,0,-23,-8,2,0,-2
32737280678,0,2,-5,1,4,2,-1,-2
32737290286,-1,-3,-7,-15,-1,1,0,-1
32737290286,1,1,5,8,1,0,-2,0
32737304570,1,-3,0,27,-1,-1,1,0
32737304570,1,2,6,4,-2,-2,0,0
32737306104,-1,-1,-11,-19,-1,-1,-1,-1
32737306104,-1,-3,1,5,-1,0,-1,0
32737327199,-2,1,6,-6,-4,-1,-2,0
32737327199,-1,-2,1,10,4,-1,-3,-2
32737328630,1,0,-4,-7,-2,-1,-1,-2
32737328630,-2,-1,-11,-3,-2,-3,2,-1
32737349568,-1,-1,-3,6,2,-2,-1,-2
32737349568,0,1,0,36,-2,-1,0,0
32737351170,-1,-1,-9,-65,-2,-1,-1,-1
32737351170,-3,-1,7,42,-1,-3,-2,0
32737364482,-1,-4,-2,-19,-1,-1,1,0
32737364482,0,0,2,24,-2,-3,1,-1
32737366093,-2,-1,-6,-15,0,-2,0,1
32737366093,2,-1,-3,4,1,0,-2,-1
32737387035,-1,1,-2,-6,-4,-1,-1,-1
32737387035,0,-2,-7,24,5,1,-1,-1
32737388656,-1,1,4,-31,-4,0,-2,-1
32737388656,1,-2,3,-1,0,-1,1,-2
32737409498,0,0,-1,44,6,1,0,0
32737409498,1,-1,-3,-69,-5,1,-2,0
32737411152,-1,-2,1,5,-5,-1,0,0
32737411152,-2,2,-2,8,-1,0,-1,1
32737424567,0,0,-13,-20,-3,-1,1,1
32737424567,-3,-1,10,12,2,2,0,1
32737426133,-1,0,5,26,4,-1,-1,-3
32737426133,-3,-1,12,-17,-2,-1,1,-3
32737447069,1,0,-3,5,-2,-1,0,-2
32737447069,-1,0,-1,-14,-1,1,-1,-1
32737448647,0,-3,7,-1,0,-2,-1,0
32737448647,3,0,-3,10,4,-1,0,1
32737469537,1,-1,-8,7,0,0,-3,-1
32737469537,0,-1,2,-5,-9,-2,-1,1
32737471154,0,1,2,11,0,0,-1,-1
32737471154,0,1,-1,0,5,-1,-2,-2
32737492071,-6,-4,7,3,-5,-3,0,-2
32737492071,-1,-2,-28,-34,-12,-3,-2,0
32737493668,-2,-3,7,34,2,1,2,1
32737493668,7,4,-10,-82,-4,1,3,1
32737507043,-15,-6,20,44,2,1,-2,-3
32737507043,-3,3,50,31,6,1,0,-3
32737508630,-2,-7,-75,-42,-6,-2,-2,0
32737508630,3,1,37,76,-1,-3,2,-1
32737529467,3,2,-24,-74,-1,-5,-20,0
32737529467,1,1,-23,-34,-4,0,9,-1
32737531131,-2,4,34,-19,4,4,-1,1
32737531131,-6,-7,-23,38,-4,5,12,-3
32737543550,-6,1,4,-7,0,1,7,4
32737543550,-8,-6,4,13,1,-5,-11,-4
32737552220,12,2,-9,-23,-2,-8,-21,2
32737552220,-5,-3,-7,38,2,6,6,-1
32737582001,4,3,16,-80,-4,5,10,2
32737582001,2,3,-21,36,2,1,1,1
32737583624,-9,-2,14,47,-3,-1,6,-3
32737583624,-1,0,9,-22,0,0,-16,0
32737589469,2,0,-3,20,-2,-2,-3,-3
32737589469,1,-4,-20,-27,-2,-4,2,1
32737591103,0,-2,10,3,-2,-1,-5,-3
32737591103,2,3,9,10,1,2,1,0
32737603913,0,0,-3,-28,1,0,2,-2
32737603913,4,-1,-2,1,2,-1,-1,-1
32737610730,-1,0,10,35,1,0,3,0
32737610730,1,-2,-11,1,0,-4,-2,0
32737627064,-1,-2,-18,-51,-2,1,2,-1
32737627064,-1,1,29,26,0,-1,-7,1
32737628652,-3,-1,-9,-8,-3,-1,3,-2
32737628652,-5,-1,-15,17,1,0,0,-3
32737649532,-3,-6,1,37,-1,-4,-6,-3
32737649532,11,0,4,-16,0,1,4,4
32737651165,-9,1,1,-19,-1,1,5,1
32737651165,-2,-2,-6,-43,-2,-3,-3,3
32737663321,4,-1,-9,60,1,-1,0,-2
32737663321,-1,2,24,-27,-5,0,-1,-4
32737672281,-2,-5,-11,48,5,1,2,-3
32737672281,2,3,2,-37,-6,-4,-5,0
32737687017,-3,2,0,-27,1,-4,0,5
32737687017,-18,-6,-9,28,-2,1,2,6
32737688639,-2,4,-2,-17,-4,-3,-2,-1
32737688639,90,0,-7,9,-1,-10,-4,27
32737717038,-73,-17,13,27,13,23,12,0
32737717038,-5,-5,-7,6,3,1,1,-6
32737718623,3,-3,5,-64,-2,1,2,-16
32737718623,-14,3,0,12,-7,-7,-3,1
32737723271,20,4,5,8,-2,-5,-3,-3
32737723271,36,-3,-9,5,2,-1,-2,-3
32737732284,-18,-4,4,17,-1,-2,-3,2
32737732284,-15,-8,-6,-5,0,-2,-2,-8
32737747071,21,2,-4,-31,-10,-5,-4,2
32737747071,-7,-4,3,31,-3,-1,-1,-1
32737748679,-14,-1,11,-4,-1,-2,-1,-2
32737748679,-14,-2,-31,-21,1,3,-1,-8
32737769577,-5,1,-16,15,1,-5,-1,-3
32737769577,7,3,23,-15,0,-2,4,3
32737771203,6,4,6,36,0,-6,-14,-4
32737771203,-17,-9,-8,-29,-12,-12,-14,-14
32737783206,20,3,15,50,4,2,-24,-1
32737783206,-20,-2,-49,5,-2,-8,24,-5
32737792222,30,8,26,-47,6,21,24,11
32737792222,-36,-1,3,13,4,-6,-8,-12
32737807071,17,0,1,-24,-11,-7,-6,3
32737807071,7,4,-11,-14,11,3,-3,0
32737808690,-3,-6,-4,8,-7,-2,-2,6
32737808690,7,-3,-13,-46,-1,2,-6,-1
32737829539,9,0,5,31,0,-2,19,4
32737829539,29,2,9,-35,-1,2,-5,7
32737831388,3,0,-14,37,3,-4,4,1
32737831388,-42,2,12,-26,-3,0,2,-1
32737851187,7,7,-3,11,-9,-16,-8,0
32737851187,-20,-6,-6,-11,5,10,1,-1
32737859688,20,9,-11,16,-15,-25,-22,-4
32737859688,0,-3,19,39,26,37,27,8
32737867079,-7,-1,5,-6,-8,-9,-2,-6
32737867079,-2,3,-6,65,-3,0,-1,21
32737868638,-18,-12,-1,-95,-5,-3,-4,-34
32737868638,7,0,5,65,-3,-6,-3,2
32737889530,-3,-6,-12,-55,-4,0,4,-1
32737889530,13,4,4,-16,-9,-3,-8,1
32737891196,-6,-7,-6,30,11,5,4,13
32737891196,0,6,15,4,-7,-13,-1,-3
32737903294,-10,-2,-8,-1,5,-3,2,-4
32737903294,19,-1,-4,-7,-1,-15,-4,-5
32737912296,6,2,-7,-12,-1,4,0,9
32737912296,-6,-2,30,17,-4,14,7,-5
32737927591,13,2,-32,-36,5,12,-4,3
32737927591,-51,-9,25,58,-7,7,-3,4
32737929167,6,8,-14,-13,13,7,19,-10
32737929167,5,-8,-16,13,5,-3,-10,-2
32737949626,-11,3,58,-5,-18,-15,4,5
32737949626,9,-9,-56,-20,24,18,31,-8
32737951281,36,6,-20,84,3,-2,-17,7
32737951281,-10,-7,-29,-95,-5,-7,12,3
32737963400,9,2,10,60,9,2,10,-4
32737963400,-4,-5,-14,-96,-15,-8,-15,-5
32737972329,3,-5,5,10,-4,-9,-6,-10
32737972329,12,8,9,19,6,3,9,-2
32737987025,-10,-4,10,-22,-2,-3,-3,-2
32737987025,5,6,40,27,-3,-7,-2,-3
32737988674,3,1,-32,12,0,2,2,14
32737988674,-27,-2,25,14,-6,-7,-12,-11
32738009555,11,1,-15,-16,3,5,0,-4
32738009555,-8,-2,0,-19,-6,-7,-5,-8
32738011235,-16,-3,45,26,-4,3,-5,10
32738011235,17,-4,-42,-62,-17,-15,-9,-16
32738023281,16,-11,-17,59,24,27,16,19
32738023281,-16,-2,2,-17,-10,-6,-13,-22
32738032265,5,-4,-9,-35,-2,-4,3,17
32738032265,47,16,21,51,5,7,5,7
32738047206,-50,-2,-11,-14,-7,-12,-9,-3
32738047206,2,-4,15,46,12,4,-4,-12
32738048819,-26,-1,-5,-33,-5,-4,3,0
32738048819,13,-6,-3,17,-3,-1,-3,6
32738069741,5,4,-6,-7,3,3,-8,3
32738069741,0,5,-3,-16,-2,1,0,8
32738071446,-9,2,35,19,3,3,3,-7
32738071446,-7,1,33,21,2,1,-7,0
32738083326,-4,-10,-44,-36,-8,2,2,-7
32738083326,2,4,-17,-67,2,-9,-4,8
32738092262,-14,-5,21,41,-2,-5,-9,-18
32738092262,-15,-3,54,48,1,-6,-19,0
32738106521,11,-2,17,-21,-15,0,-8,-10
32738106521,1,6,-47,9,15,15,21,6
32738113359,7,5,28,-9,-4,-4,-14,3
32738113359,-22,-5,-46,-12,5,1,14,-1
32738130364,-3,3,9,30,-5,-13,-15,5
32738130364,-12,-2,15,-1,-14,-12,-13,-5
32738131844,29,-3,-21,24,1,7,1,-1
32738131844,-11,-2,-12,-47,-3,2,2,4
32738143338,8,1,9,-6,1,1,4,-1
32738143338,-4,-2,9,8,-1,0,-3,0
32738152269,3,-3,-17,-28,3,-1,5,1
32738152269,6,1,-9,30,2,-2,-1,4
32738167171,-4,1,-3,-2,2,-1,4,-3
32738167171,5,4,9,9,-3,-3,-12,-3
32738168657,-26,-21,-10,-11,11,8,6,-4
32738168657,7,1,-2,-5,5,8,6,1
32738189595,1,5,3,20,1,-1,-2,-3
32738189595,-4,-5,11,24,6,7,4,-2
32738191285,-3,2,-8,-54,-2,-4,1,0
32738191285,0,-2,-10,-39,-10,-2,-1,0
32738212060,7,-1,-1,25,7,4,1,0
32738212060,-1,2,1,11,-5,-7,-3,3
32738213685,-2,3,0,14,0,1,4,-2
32738213685,2,0,-5,0,4,3,-2,-4
32738226431,0,1,1,0,-5,6,2,-3
32738226431,-1,-2,3,0,-6,12,0,-2
32738233279,3,0,-3,-12,-2,11,5,2
32738233279,-2,-2,-1,14,-3,-13,1,-2
32738249619,0,0,7,-5,2,-12,1,-2
32738249619,-2,-1,-20,-7,-2,-17,-8,-1
32738251291,-7,-4,7,-4,-2,-14,-1,-5
32738251291,11,0,-9,17,4,6,5,6
32738272201,-4,-1,17,-19,7,-2,4,4
32738272201,-6,4,-23,-17,2,0,-3,-1
32738273805,-3,0,35,27,-4,-3,-6,-1
32738273805,2,4,-19,-17,2,8,9,0
32738286605,14,-2,-12,3,-4,-2,-32,-3
32738286605,5,-7,6,-18,-2,8,30,2
32738293427,2,6,8,1,-6,12,2,-4
32738293427,-11,-4,-26,-19,-4,11,-6,-5
32738309472,3,-2,31,60,4,8,4,2
32738309472,3,2,-3,-53,1,-4,-11,-6
32738315903,-2,-1,-12,8,-4,-11,-1,3
32738315903,10,-1,11,-19,-1,-8,1,1
32738332254,-8,2,-2,11,-2,-8,4,-5
32738332254,-1,-3,7,6,3,-7,-5,4
32738333738,-6,-8,-8,43,8,4,10,4
32738333738,7,11,6,-48,-14,-18,-11,0
32738346612,-5,-4,2,10,20,20,18,3
32738346612,-5,-5,13,64,-1,-1,-2,1
32738353413,-4,-1,-18,-89,-6,-2,-4,-3
32738353413,4,-3,5,30,-2,-4,-2,5
32738369800,4,1,-4,-14,-5,-1,0,12
32738369800,1,1,4,23,0,-1,0,-5
32738371440,-1,3,-6,6,-1,0,0,0
32738371440,-1,-3,-1,-8,1,-6,-2,-9
32738392181,-13,-1,-12,-15,-7,-11,0,0
32738392181,3,-2,5,3,0,4,-1,6
32738393770,-1,1,-10,1,-3,-5,-3,1
32738393770,2,-2,10,-7,3,4,0,2
32738406489,-21,-2,2,19,-6,1,-1,-7
32738406489,-7,0,-11,10,1,1,1,-3
32738413431,-1,-2,-11,-18,0,2,0,-3
32738413431,-6,-3,12,-4,-2,3,1,0
32738437245,11,-2,-33,28,-2,0,1,-4
32738437245,-3,0,13,-59,-4,-1,0,3
32738438904,4,6,4,-3,2,1,0,3
32738438904,-2,-3,8,16,4,3,0,0
32738452196,-1,-1,-7,-18,-2,-5,-2,-1
32738452196,-4,-1,4,9,0,2,2,-3
32738453867,4,2,-14,-5,1,4,1,3
32738453867,-3,-3,1,-8,2,2,0,-5
32738466462,-5,1,5,6,-6,-2,-4,-9
32738466462,1,1,-1,-2,2,1,-2,0
32738473425,1,-3,4,-15,0,-2,3,-2
32738473425,-2,0,-10,30,-2,-2,-3,2
32738489781,2,-3,-1,0,1,0,-1,0
32738489781,4,-1,-4,-26,-5,-4,-2,-4
32738491354,-1,1,-6,7,-2,-3,-1,3
32738491354,-1,-4,-6,2,1,-1,1,1
32738512222,4,0,-7,-17,-6,-4,2,-3
32738512222,5,3,5,31,0,0,-2,2
32738513760,-4,-8,-3,14,7,2,-1,-1
32738513760,-5,-2,-10,-29,-4,-4,0,-1
32738525928,5,4,9,1,-2,-4,-3,-2
32738525928,-4,-12,-10,-8,-3,-1,-4,0
32738534765,-4,3,0,44,3,2,-1,-1
32738534765,-1,2,4,-26,-8,-2,-1,-1
32738549713,2,0,-1,-17,4,0,-1,3
32738549713,-1,2,1,4,-1,0,0,4
32738551444,-4,-1,2,5,2,-2,-1,-22
32738551444,-4,-3,-4,-16,0,1,-1,-2
32738572054,-2,-2,-2,-9,-2,-2,-4,0
32738572054,-1,-2,-3,-12,-3,-2,1,-1
32738573711,2,0,5,19,-1,-1,-1,5
32738573711,0,2,-8,20,1,-1,-1,1
32738596063,-3,-3,2,-27,-6,0,1,-7
32738596063,4,-1,0,19,0,1,2,4
32738599015,0,-1,1,-16,-3,0,1,3
32738599015,-1,-1,-5,-1,3,-2,-3,0
32738601715,-2,-1,11,15,0,2,0,1
32738601715,2,0,3,12,0,1,1,0
32738616312,-10,1,1,-15,-7,-5,-2,2
32738616312,-1,-1,-6,19,1,4,4,0
32738624781,4,0,2,25,3,2,0,0
32738624781,-5,1,-2,-42,-5,-5,-3,-3
32738626277,4,-4,4,-8,-3,1,1,2
32738626277,2,0,10,6,5,2,0,3
32738638984,1,-1,-2,4,2,5,1,2
32738638984,6,2,5,5,1,1,-1,-1
32738645858,7,2,-10,-51,-7,-3,0,4
32738645858,-1,0,16,41,1,-3,-1,-1
32738661467,2,1,7,-5,2,1,-1,0
32738661467,-1,0,-5,8,3,-1,-1,-3
32738668364,-3,0,6,14,-2,-1,-3,0
32738668364,3,1,-6,-15,2,1,-1,0
32738684655,-2,0,-8,-15,-3,-3,1,0
32738684655,-2,1,5,52,1,3,1,0
32738686406,-3,2,-7,-54,-1,1,1,0
32738686406,-2,-2,-2,25,-4,-3,0,0
32738699058,0,1,-5,-20,-1,-2,1,1
32738699058,-1,-1,2,16,0,-1,-3,0
32738713333,1,0,0,11,0,-1,0,1
32738713333,1,1,-4,-12,1,0,-1,-1
32738721571,2,-3,1,-11,1,-2,2,0
32738721571,-2,0,0,15,-2,-1,0,-1
32738728260,-3,-4,1,8,-3,-2,-3,-1
32738728260,-1,1,-6,-9,-1,0,1,-1
32738752239,-2,2,-7,-14,-1,-1,-2,0
32738752239,1,-3,-2,9,-2,-1,-3,0
32738753822,-14,-3,-6,6,2,0,2,1
32738753822,-2,0,7,25,0,-1,2,0
32738758942,-3,-4,-9,-38,-3,-1,0,-1
32738758942,-6,1,3,-16,3,-3,-1,-2
32738765846,4,-2,-13,12,1,-1,0,-1
32738765846,-2,1,-5,0,1,-1,1,-1
32738781520,-1,2,-4,-1,0,0,0,1
32738781520,-1,-1,-3,3,0,-1,-2,0
32738788369,3,0,-2,-5,0,0,3,0
32738788369,0,-2,9,-19,-2,-1,-2,0
32738804700,-1,-4,4,3,-4,-3,2,1
32738804700,-2,-1,-10,-3,1,1,-1,1
32738806262,2,4,3,7,0,1,-1,0
32738806262,-7,-3,-2,-10,-2,1,-2,-4
32738818423,2,-1,4,17,0,2,5,4
32738818423,-4,-1,-8,-19,-2,-2,0,-2
32738827313,8,-1,6,2,1,0,0,1
32738827313,-18,0,-5,17,-1,-3,1,2
32738841525,2,-3,-3,-36,-2,1,-4,-3
32738841525,-1,-3,-8,4,-4,-5,0,-2
32738848293,-1,1,16,-14,-1,3,1,-1
32738848293,5,-2,-5,16,-3,-1,-1,0
32738864748,-2,0,-1,15,3,-2,-4,0
32738864748,-3,3,3,-14,-1,1,3,0
32738866293,-2,-1,-3,7,-4,0,-4,-1
32738866293,3,-1,-6,-20,-1,-2,-1,0
32738878306,-3,2,-7,14,-1,-4,-3,-1
32738878306,1,-1,-8,-14,-3,0,-1,-4
32738887256,-2,0,-1,8,1,-6,1,-1
32738887256,3,1,-11,-22,1,0,0,0
32738901624,-1,3,5,12,0,-1,0,-1
32738901624,0,-2,11,19,1,0,-1,-2
32738925355,0,-2,1,36,-2,-1,-1,0
32738925355,1,-4,-4,-15,-1,-1,-3,-2
32738926144,4,1,2,43,4,3,0,-4
32738926144,-1,1,5,-63,-6,-1,-3,1
32738927736,0,-3,-2,-1,0,0,-2,-1
32738927736,4,0,5,-14,-1,-1,0,-2
32738938426,-7,-3,-4,20,-1,-3,-2,-1
32738938426,0,1,3,11,2,2,-1,1
32738947339,4,-1,-2,-16,-1,1,-2,-2
32738947339,4,0,2,16,0,1,-2,0
32738961621,-1,-2,-4,-21,-2,-1,0,0
32738961621,1,-2,8,-19,-1,1,-1,-1
32738968459,-3,1,-22,20,-2,-2,-1,-1
32738968459,2,-2,7,-3,2,-2,0,0
32738986096,0,0,2,15,1,-1,0,-1
32738986096,2,0,-1,-14,1,-1,0,-1
32738989094,-2,2,8,18,0,-1,0,0
32738989094,-3,-1,-14,-4,-2,2,-1,1
32738999555,-1,-2,1,-19,-4,-1,-2,-1
32738999555,2,1,-6,17,-3,-1,1,-3
32739007631,-12,-4,6,-12,0,0,0,3
32739007631,-4,0,-1,-5,-1,-1,-1,0
32739021435,-6,-3,-2,-7,-1,0,-1,0
32739021435,3,5,-2,9,-4,-4,-4,1
32739028262,2,1,1,-3,5,1,1,-2
32739028262,-1,-4,3,18,0,3,0,-2
32739044723,-3,-1,-6,-41,-3,-4,-1,-1
32739044723,-2,1,4,37,1,-1,0,-1
32739046376,0,0,5,-2,-4,-4,-3,-1
32739046376,-5,-1,-14,25,0,-1,-1,-2
32739058338,7,2,6,-28,1,1,4,1
32739058338,-3,-5,-9,-33,-2,-1,0,-1
32739067296,7,-1,1,36,-3,-3,-1,-1
32739067296,1,1,11,0,-2,-2,-3,0
32739081596,6,0,-8,21,1,5,1,0
32739081596,2,0,6,0,4,3,4,13
32739088313,-8,-3,-2,-5,2,-1,-7,-21
32739088313,-4,5,16,11,-5,-3,-2,-5
32739104694,1,-4,-24,-51,0,-1,1,2
32739104694,-12,1,16,7,8,3,1,-4
32739106283,10,-2,-9,13,-2,-3,-13,5
32739106283,11,1,4,17,3,-1,10,4
32739118456,-6,-2,6,23,-2,-3,-1,-4
32739118456,21,-2,-16,-9,-2,0,2,0
32739127331,-5,-3,-8,-61,-4,-2,0,3
32739127331,-5,-2,-1,17,-1,1,-4,-4
32739141653,-6,1,1,-17,-1,1,-3,0
32739141653,4,-2,5,36,0,3,4,7
32739155875,-1,2,2,-3,2,-1,5,-3
32739155875,1,-3,-10,-43,-1,-2,0,3
32739164763,-3,0,7,29,-1,-4,0,-2
32739164763,-2,-1,9,-10,-2,-4,-3,-1
32739166467,-4,-2,-3,8,2,0,3,3
32739166467,-4,1,-1,-9,-4,-1,3,-1
32739178489,0,-2,-3,1,-2,-1,0,0
32739178489,-5,-1,-6,5,-1,-3,-2,-4
32739193428,-2,1,0,-4,2,1,5,5
32739193428,3,-2,4,34,4,0,-4,-2
32739201520,2,2,-2,-63,-7,-2,-1,0
32739201520,-7,0,8,31,-3,-2,-2,-2
32739208451,0,-2,-12,-26,1,1,1,0
32739208451,5,0,-3,19,3,1,-2,2
32739224721,-2,-1,2,15,-2,0,1,-1
32739224721,-6,-2,-3,-10,1,-3,-3,-2
32739226438,3,-1,1,-6,-4,-1,-1,1
32739226438,-1,-1,-2,-12,-1,-1,-3,-1
32739238385,-3,1,-2,14,2,1,1,-1
32739238385,-4,0,2,-11,-2,-4,-4,-3
32739247285,1,0,3,26,5,3,2,2
32739247285,-3,-1,-5,-19,1,0,0,-1
32739261621,0,0,2,14,-2,1,-1,-2
32739261621,1,-2,-8,-11,-2,1,-1,-1
32739268308,-1,1,5,8,-5,-1,-1,0
32739268308,-3,-1,-5,-25,-1,-2,-3,-3
32739284012,0,-1,2,22,0,-2,-3,-1
32739284012,0,-1,-5,3,-2,0,2,-2
32739290983,-2,-3,0,6,2,-2,1,-1
32739290983,-4,-3,-9,-60,-1,1,0,-2
32739298481,4,0,14,51,-1,-2,-3,1
32739298481,1,1,-4,-7,-1,0,-1,-2
32739307293,0,0,5,11,-2,0,0,0
32739307293,1,1,1,-3,0,0,0,1
32739321599,-5,-2,3,-7,1,0,0,-2
32739321599,1,0,-8,0,0,0,1,-1
32739328454,3,5,23,-3,0,0,-6,0
32739328454,-2,-3,-22,-16,-4,0,0,0
32739344178,1,3,15,13,1,-2,-2,-1
32739344178,-1,-2,-10,63,6,1,-1,-2
32739350956,-2,1,3,-88,-8,-1,1,2
32739350956,-3,2,9,43,-6,-3,-1,2
32739358478,-1,1,-17,-25,0,-1,-1,-1
32739358478,-1,5,1,10,-2,-4,-3,0
32739367320,-6,-14,-27,-23,7,4,0,-3
32739367320,2,4,62,65,-3,0,4,1
32739381657,-7,-5,-3,-26,2,-3,-8,-2
32739381657,-4,1,14,34,-5,-2,-1,1
32739388425,6,3,-16,-3,0,-2,-7,-2
32739388425,2,-2,-12,-23,7,6,11,-2
32739404122,1,0,4,-24,-6,-1,3,-1
32739404122,5,-2,22,68,8,1,2,-3
32739410930,-4,1,9,-14,-9,-3,-4,2
32739410930,-4,-7,-10,8,-2,-2,-3,-1
32739418330,-5,2,4,-36,-2,-4,2,-1
32739418330,-5,-4,-20,-41,1,-7,-4,2
32739427314,9,1,-3,48,4,1,4,-3
32739427314,-4,0,-2,-23,0,-3,-5,-5
32739441650,8,3,-30,53,-3,7,3,4
32739441650,-5,-10,16,-45,-4,4,-3,1
32739448452,-4,3,-6,13,1,3,3,-2
32739448452,2,-1,3,-16,5,3,0,1
32739464126,-2,0,4,14,10,0,-3,-2
32739464126,-4,-6,-28,-38,-8,0,-1,-2
32739470829,3,8,17,4,-9,0,1,2
32739470829,-2,-13,-40,-2,29,3,-3,-1
32739494682,-4,6,33,4,-1,1,0,-2
32739494682,0,-1,-6,-15,-2,-5,0,0
32739496438,-3,-6,24,-27,-35,-8,-4,-10
32739496438,7,19,2,26,35,11,2,7
32739508473,-2,-10,0,15,9,-2,-2,-2
32739508473,4,-4,-14,-26,14,2,4,9
32739517414,-4,-5,-1,2,-18,-6,-2,-28
32739517414,5,7,0,-5,-24,-10,-1,25
32739532328,0,-1,-8,-4,-1,3,1,8
32739532328,3,6,5,-16,-17,-2,-1,0
32739533907,0,1,0,44,32,4,1,3
32739533907,-2,-11,2,-35,-13,-5,-3,-11
32739554804,2,1,-16,3,-4,-1,-2,-6
32739554804,-3,-1,-5,-6,0,0,-1,1
32739556438,-1,-5,-5,24,7,-1,0,5
32739556438,-2,0,-3,-33,-7,-2,-1,-7
32739568475,-2,-3,-2,5,-11,-5,-3,1
32739568475,-1,1,11,-18,-6,-1,-2,-7
32739577266,-2,2,-4,5,14,4,2,6
32739577266,0,1,5,10,-12,-5,0,-4
32739592282,1,-2,4,14,7,1,0,-2
32739592282,0,6,0,12,0,1,-1,-2
32739593829,-2,-4,-14,-28,4,-1,-1,2
32739593829,-2,-3,-2,29,-13,-3,-2,-1
32739614828,3,4,-2,-17,-2,2,0,0
32739614828,-6,-5,-24,1,6,-1,-1,-5
32739616483,0,-3,11,-21,-11,0,0,6
32739616483,-4,2,24,16,-1,-5,-7,-8
32739636629,-1,-5,-17,-34,-5,0,0,3
32739636629,4,2,-12,2,3,3,2,1
32739637280,-1,-1,9,19,5,1,2,-2
32739637280,-1,-1,-11,-17,-4,-1,-3,-2
32739659837,-1,-2,-8,8,2,-2,0,-2
32739659837,-1,1,13,-15,-2,5,1,0
32739660477,0,0,-19,1,0,-4,-1,4
32739660477,-2,-2,15,17,-2,1,0,-3
32739674192,-7,4,0,5,-3,-3,-1,0
32739674192,5,-2,-8,-3,-2,-1,1,-2
32739674754,0,3,0,8,-2,-2,-2,0
32739674754,2,0,-8,-9,0,2,0,0
32739697233,1,-2,-5,-20,-4,-1,1,-4
32739697233,-3,1,17,8,-1,-2,-2,-1
32739697957,-2,-5,-1,13,0,0,0,0
32739697957,1,-2,-24,-2,0,-3,-2,0
32739711628,0,-2,14,9,5,2,-1,-4
32739711628,-5,-1,14,-70,-7,-5,-2,1
32739712276,-4,2,-5,76,9,-3,-14,2
32739712276,35,2,1,-100,-16,-6,7,-11
32739734015,-12,4,10,106,15,-6,-8,-12
32739734015,23,-13,-16,-49,-7,5,20,29
32739734804,-23,10,0,75,6,1,3,-6
32739734804,-5,-11,-9,-63,-6,-4,-11,7
32739748481,48,5,2,73,-5,0,2,-12
32739748481,-15,5,8,-24,-4,1,2,-3
32739756625,-9,-11,1,-38,8,-3,-9,-12
32739756625,67,18,13,-14,-12,4,18,27
32739771630,-24,-5,4,70,3,-6,-10,3
32739771630,-41,-4,-6,127,21,2,-11,-7
32739772275,-1,-5,-21,-128,-27,0,9,0
32739772275,-31,-4,9,76,10,-1,-9,-9
32739794104,18,-6,-32,-128,-13,1,4,14
32739794104,13,2,4,23,5,-8,-4,-12
32739794774,-22,4,39,22,-3,3,-6,-14
32739794774,-18,-10,-31,35,3,-2,5,-1
32739817083,-1,-1,5,86,8,2,3,4
32739817083,-2,2,-12,-109,-23,-4,-1,-7
32739817705,25,7,22,89,3,1,2,14
32739817705,-8,-4,4,31,5,0,-6,-5
32739831594,-14,-1,8,-1,-1,2,4,-4
32739831594,8,-1,-20,-4,0,-2,-5,-1
32739832262,6,-4,0,-29,-2,-5,-2,1
32739832262,-14,2,9,8,-3,3,0,-4
32739854061,-9,-2,2,-56,4,-1,2,2
32739854061,3,-1,-2,1,1,-2,-3,0
32739854807,8,1,-2,-21,-5,0,-1,2
32739854807,-15,-1,7,14,13,1,0,-5
32739877297,3,0,-11,-38,-9,0,-3,3
32739877297,6,4,9,-20,3,-3,-3,-1
32739877969,0,-2,-1,76,1,-1,4,-1
32739877969,-8,-3,-2,-29,0,-1,-2,0
32739891484,0,3,8,-49,-10,-3,-1,1
32739891484,3,1,7,82,17,6,1,-2
32739892259,-3,-2,-13,-108,-14,-3,2,3
32739892259,-2,0,-3,-3,0,-2,-3,-2
32739914109,-4,-1,4,12,-3,0,-3,-2
32739914109,-4,-2,2,10,0,-2,-1,-4
32739914802,9,-3,-12,25,9,3,0,3
32739914802,-5,3,18,8,-7,-3,-2,-4
32739928502,-4,0,-5,-98,1,2,2,-2
32739928502,1,0,1,70,-2,0,-2,-1
32739936656,2,0,-8,17,8,2,-1,0
32739936656,-4,-1,-6,-29,-10,-1,-2,-1
32739951618,0,-1,-1,12,6,-1,0,0
32739951618,-2,-3,2,-49,-7,-1,0,-1
32739952299,0,-1,1,-42,-1,-3,0,0
32739952299,1,-1,-4,34,4,-4,0,-1
32739974096,-12,-1,3,2,0,2,0,-1
32739974096,2,0,-11,-31,-2,-1,-2,0
32739974799,-3,-3,11,28,-1,-3,-1,-3
32739974799,-1,-4,-2,43,3,1,-4,-1
32739988391,5,3,4,-65,-11,-3,-1,1
32739988391,0,0,0,2,-2,-3,-2,0
32739996655,2,-1,-15,-1,1,1,0,1
32739996655,-6,1,2,7,1,3,-2,-1
32740011460,-2,-4,0,16,1,1,-3,-3
32740011460,2,0,3,-22,-1,-1,-4,0
32740012257,0,-2,-17,-3,-2,-4,0,0
32740012257,-4,2,9,-3,3,0,1,-2
32740034008,4,0,6,19,0,1,-1,0
32740034008,-15,-5,-9,-3,1,-1,-1,-5
32740034812,-3,-1,-22,-37,-1,1,1,-1
32740034812,0,0,8,43,0,0,0,0
32740048502,-2,-5,-8,-51,-2,-1,-2,0
32740048502,11,2,7,110,5,-1,1,0
32740056631,2,-2,25,-95,-4,1,-3,-2
32740056631,-1,-2,-31,9,0,-3,1,-2
32740071629,-3,1,6,21,2,-1,1,-1
32740071629,-3,2,9,21,-1,0,1,-2
32740072286,0,-3,-15,0,4,-1,0,2
32740072286,6,8,15,-37,-4,1,-1,0
32740093791,-2,-10,9,25,-1,-2,-2,-1
32740093791,3,-2,-10,57,2,1,0,1
32740101566,-17,0,-6,-18,-4,-4,-2,-3
32740101566,-4,-3,8,-20,-5,-3,-2,0
32740108479,2,5,-9,-4,3,1,0,1
32740108479,-3,-4,1,-28,-5,2,-3,-1
32740116597,0,-1,25,43,2,-2,-2,-3
32740116597,1,-1,-10,-24,-3,-3,-1,1
32740131602,-2,1,-10,1,-2,-1,0,-2
32740131602,2,0,-1,-34,-3,-2,-1,1
32740132299,3,2,3,35,-1,0,0,1
32740132299,-4,-2,-6,-28,2,1,-1,-1
32740154156,3,4,13,31,1,-3,1,0
32740154156,-5,-3,-9,-46,-3,-2,1,0
32740154798,4,1,-6,12,1,2,0,-2
32740154798,-1,-1,19,7,0,0,0,0
32740177317,-1,1,3,10,-2,1,-1,0
32740177317,-2,-2,-12,11,2,1,-2,0
32740177995,0,-4,15,-18,-8,-2,-1,-1
32740177995,0,0,-9,10,2,1,1,2
32740191597,0,-5,-8,-18,-3,-1,-1,-1
32740191597,-3,4,12,-26,-7,-4,-3,-1
32740192272,2,-1,-3,15,7,2,1,-1
32740192272,2,5,-35,-19,0,0,0,0
32740214045,-5,-11,24,-1,0,-2,0,-1
32740214045,1,-1,-3,-5,-2,-3,0,-1
32740214873,1,-2,-11,11,-2,-2,-1,0
32740214873,6,-3,-1,8,1,1,-1,-1
32740237284,-1,2,-13,-2,-1,2,1,2
32740237284,3,2,25,12,0,0,1,0
32740237975,-1,1,-6,-6,2,-2,0,-3
32740237975,0,-1,8,-18,-3,-1,-1,-1
32740251564,1,2,0,36,1,-1,-1,1
32740251564,-1,0,2,-9,0,0,0,-2
32740252303,6,4,-3,-2,0,0,2,0
32740252303,-2,-3,5,-26,-7,-1,-3,2
32740282275,-1,0,-5,34,4,-3,-3,-1
32740282275,0,2,2,-1,4,4,0,1
32740283023,-5,-2,1,-4,-4,-1,-1,-3
32740283023,-3,-3,-2,4,0,-1,2,0
32740297351,-1,0,-14,-19,-5,-1,-2,-3
32740297351,0,5,18,18,5,0,1,1
32740297984,-3,-3,-13,-2,-2,0,1,2
32740297984,0,0,5,5,2,1,-1,1
32740311695,0,-2,-38,-7,-1,-3,-1,-2
32740311695,-4,-3,26,-7,-3,-4,-2,-5
32740312323,-1,0,0,-1,-1,1,0,-1
32740312323,1,-1,2,1,7,-2,1,-1
32740334147,1,3,11,-3,-5,-5,0,4
32740334147,-1,-2,-8,4,1,1,0,-2
32740334793,-4,-1,-18,2,-1,0,-3,-1
32740334793,2,4,0,6,-2,-2,1,1
32740357365,-1,-7,-5,-7,0,1,1,1
32740357365,-1,-4,-14,-11,-3,-2,-2,-1
32740358019,-1,0,9,0,1,-2,-2,-1
32740358019,-2,0,3,11,-4,-2,-3,0
32740379792,-1,2,-15,-4,0,-1,-1,-2
32740379792,-1,-4,-2,-12,-2,-3,-1,-1
32740380502,-1,-1,-5,-7,1,2,0,0
32740380502,-2,-2,16,15,5,-1,-1,-3
32740394175,-3,1,16,16,2,-5,-1,-2
32740394175,-2,-1,-28,-24,-2,-1,-1,-1
32740394822,1,-1,11,18,-2,-1,0,1
32740394822,-2,0,2,2,1,0,-1,-2
32740417361,0,0,6,1,0,2,0,0
32740417361,1,1,-6,6,4,1,0,1
32740417980,1,-1,3,-20,-5,-3,-2,-2
32740417980,0,-1,-6,12,-3,0,-2,-3
32740431562,0,0,0,-4,3,0,-1,-3
32740431562,-2,0,-4,-5,-2,2,0,0
32740432352,1,-2,0,-1,2,-1,0,2
32740432352,-1,-3,-3,-2,-1,0,-1,-1
32740454179,0,-2,7,-5,-1,0,-1,-2
32740454179,0,-1,6,9,2,1,0,0
32740454798,0,1,-13,-9,4,1,-2,0
32740454798,-2,-4,-6,-3,-2,-1,0,-2
32740477319,0,0,1,-1,-4,-2,-1,-1
32740477319,1,1,1,1,6,1,0,1
32740477996,1,2,-1,2,-3,-3,-1,3
32740477996,1,1,-16,-6,-3,0,-2,-1
32740491677,-3,-2,11,-5,-4,-2,-2,-1
32740491677,-3,-3,3,-1,-3,-3,0,-1
32740492353,-2,-1,8,2,-3,-2,0,-2
32740492353,0,0,-27,0,1,0,0,0
32740514182,-1,2,-1,-11,-3,0,2,3
32740514182,-2,0,6,-5,-1,-4,-1,-2
32740514820,-1,-2,3,15,0,1,-1,-2
32740514820,-2,-3,7,0,-2,-3,0,-2
32740544850,-1,1,-10,-9,-2,0,-2,-1
32740544850,2,2,6,-5,-3,0,0,3
32740545515,-1,0,-18,-1,-1,1,0,-3
32740545515,-2,1,16,4,0,-1,-2,-3
32740551479,1,-2,9,5,0,1,1,-1
32740551479,1,-1,-4,7,-2,0,-4,-1
32740559231,0,0,-5,-3,1,-1,0,-1
32740559231,-2,-6,8,-6,-3,-2,2,0
32740574107,-2,0,-1,4,1,1,-1,-3
32740574107,-1,1,-8,1,1,0,2,-2
32740574813,7,2,10,-10,-1,-1,1,2
32740574813,5,-3,-10,7,-3,0,-3,1
32740596481,-7,-3,13,3,-2,1,1,1
32740596481,-16,-4,-8,-13,-2,-4,-1,0
32740604226,-2,-3,-5,-20,4,0,-1,-4
32740604226,-1,2,0,28,4,6,0,0
32740611682,-1,-4,16,34,-4,-6,0,-2
32740611682,8,2,-33,-58,1,4,5,-1
32740612304,-5,-1,21,17,-5,-3,-3,1
32740612304,-2,-3,4,54,5,-3,-4,-3
32740634072,4,2,-11,-36,-3,7,4,2
32740634072,1,-2,13,-3,5,5,5,0
32740634800,-2,-4,3,-85,-10,-4,-1,-1
32740634800,-1,1,-2,50,-1,0,-1,-1
32740657380,0,1,-8,-20,-6,-5,-3,1
32740657380,5,1,-6,-37,1,-3,-2,-1
32740658043,1,-1,3,52,1,6,1,0
32740658043,0,0,2,-77,-4,-3,-1,2
32740670945,-3,1,-1,60,-2,-3,-3,-2
32740670945,0,-3,19,-26,-2,-2,-3,-4
32740679083,-2,0,-33,24,6,1,1,0
32740679083,-1,-1,12,-14,-2,1,0,-3
32740694205,3,1,-2,13,5,4,0,1
32740694205,0,-1,-8,9,-6,0,-4,0
32740694827,0,0,0,-2,-5,-2,-2,0
32740694827,1,1,-8,2,2,2,2,3
32740717380,1,3,-1,-16,1,-2,-3,-1
32740717380,-9,-2,4,36,-2,-1,-1,-1
32740718032,-1,1,-11,38,2,2,2,0
32740718032,-6,-1,16,-36,-2,-4,-2,-1
32740731622,1,-3,-11,-23,-1,-4,-1,0
32740731622,-5,-5,-9,14,-4,-5,-4,-3
32740732298,3,0,-1,-11,3,-1,0,3
32740732298,8,4,13,-8,3,1,0,1
32740754160,-15,-8,-34,-2,1,-4,-3,-5
32740754160,2,1,7,6,-5,-2,-1,-1
32740754794,-3,1,0,-12,0,1,-4,-2
32740754794,-6,-3,-1,6,0,1,4,-2
32740777334,6,0,-15,-13,-12,-3,-1,1
32740777334,2,4,26,26,6,1,-2,0
32740778037,-13,-1,12,37,4,0,0,-9
32740778037,-2,4,-18,0,1,0,2,3
32740791067,24,2,15,2,1,6,17,4
32740791067,-40,-2,-9,1,-4,-4,3,-5
32740799196,10,-3,7,18,2,8,0,4
32740799196,-11,-2,-4,-52,-6,-11,-5,-4
32740814091,3,-4,-2,-41,-3,-2,-13,1
32740814091,14,3,1,86,-1,0,-9,14
32740814831,-8,-8,10,-85,-14,-15,3,-13
32740814831,10,1,-9,23,6,12,6,-3
32740837301,-18,0,-2,21,-10,-9,-5,-6
32740837301,7,-4,-29,-79,0,-2,6,2
32740838028,-1,1,6,5,-3,-3,-12,3
32740838028,3,1,-24,11,-6,-5,8,3
32740850892,-1,-1,19,12,4,2,-5,-1
32740850892,2,1,12,55,4,-1,0,-3
32740866728,0,0,-15,-81,-4,4,10,-1
32740866728,-4,-3,0,27,0,1,-7,-2
32740874040,8,-1,-10,-12,5,4,-2,1
32740874040,5,-3,6,25,-4,-4,-3,-4
32740874845,6,1,-4,-3,3,1,-1,2
32740874845,1,-1,12,-38,-4,-3,-7,-1
32740897397,-12,-1,-15,43,1,-6,4,-7
32740897397,11,1,18,0,5,9,2,4
32740898008,-9,2,-5,2,-7,-2,-3,1
32740898008,-1,-2,3,-16,-1,0,5,0
32740911001,-7,1,0,11,1,-3,-3,1
32740911001,6,3,-6,-50,5,0,-7,-5
32740919179,3,6,-3,63,10,4,6,0
32740919179,1,-5,7,31,-4,-2,-6,-1
32740934644,-3,-4,0,-33,0,1,-2,-1
32740934644,-2,-2,-2,7,-8,-2,2,3
32740935287,0,-2,1,-12,3,-2,-5,-4
32740935287,1,2,-1,-3,-1,-1,3,0
32740957218,2,-3,-9,-1,4,2,-2,0
32740957218,1,3,-7,-11,-3,2,2,0
32740957945,-3,-4,26,28,1,-3,-4,1
32740957945,0,3,-6,-12,1,2,-3,-1
32740970943,0,4,26,7,4,4,5,2
32740970943,2,-5,-22,86,12,0,-1,-1
32740979123,3,2,10,-90,-14,-3,0,1
32740979123,-5,0,-2,24,0,-3,-3,-3
32740994084,4,1,1,-31,-1,0,0,2
32740994084,0,-2,-9,19,12,2,-1,-3
32740994850,1,-2,6,31,-16,-6,0,0
32740994850,-3,-3,0,-21,-1,0,0,-1
32741017258,-2,-1,-3,25,0,0,0,0
32741017258,1,0,-5,-64,-14,-1,-1,0
32741017987,1,-1,-13,34,9,-2,-1,-1
32741017987,4,2,-2,-53,-2,-2,-4,-2
32741030926,-2,-1,6,73,4,-1,-2,-1
32741030926,-1,-1,6,13,-4,-1,-1,-1
32741039172,-3,-3,-5,-52,-2,-7,-6,1
32741039172,1,-3,1,3,-2,1,4,0
32741054822,-3,-1,-2,-7,0,1,0,0
32741054822,-1,-3,6,33,0,0,0,-7
32741055573,3,4,3,7,-2,-1,-17,6
32741055573,8,2,-4,-14,3,0,0,2
32741077293,-8,-1,1,0,-6,-3,0,0
32741077293,-2,0,-4,-46,-7,0,7,0
32741078002,-2,4,1,84,13,9,2,-1
32741078002,0,-1,2,-17,-2,-7,-22,1
32741090994,-1,-2,-2,-21,-8,7,13,1
32741090994,4,3,20,-25,-4,-10,-7,-1
32741099179,-17,-5,-13,14,7,5,10,-2
32741099179,3,-1,-2,-26,-2,0,-5,2
32741114871,-3,1,-1,-19,2,-1,4,0
32741114871,0,2,-7,27,-4,-4,-2,-2
32741115547,6,2,-1,24,-5,-5,-2,0
32741115547,-8,-3,0,-6,3,-3,3,-2
32741144849,-5,-4,-15,77,-7,0,-2,2
32741144849,-3,-2,-8,-41,-6,-5,0,0
32741145564,-2,-6,-5,39,0,-1,-1,-2
32741145564,-10,-1,8,37,-7,1,7,-4
32741159762,3,-8,-16,-49,14,-3,-4,-2
32741159762,-5,0,-4,-32,0,2,-2,1
32741160550,0,-2,-5,1,-3,-1,3,-3
32741160550,-1,3,5,-3,-5,-1,2,-3
32741174884,2,0,5,-34,-5,-7,-7,1
32741174884,-5,-7,4,18,2,0,-1,-1
32741175518,-1,0,-21,-31,2,-3,-1,-1
32741175518,-2,-8,-6,6,-3,-3,5,3
32741197277,-2,7,28,24,2,2,-2,-1
32741197277,3,11,16,11,0,-1,1,0
32741199017,1,-11,-26,-30,-7,0,3,-2
32741199017,-5,-6,0,26,1,-5,-4,-6
32741219904,-2,-1,-20,-25,0,3,-3,-1
32741219904,-5,-4,-5,-16,0,-2,-16,-1
32741221409,1,7,30,4,-3,-6,6,-7
32741221409,-3,13,-13,10,5,4,7,4
32741233553,-8,-14,11,-11,-4,-3,6,-2
32741233553,2,-6,0,-1,0,-1,0,0
32741242394,-6,-5,-10,-22,0,1,0,2
32741242394,8,1,16,23,-1,-1,-4,-4
32741257401,4,4,-16,-26,3,-2,-3,-3
32741257401,-1,-3,-18,45,1,3,4,-1
32741258907,0,3,26,11,-5,0,-2,1
32741258907,3,-4,-18,-21,-2,-4,1,0
32741279796,1,2,6,28,2,-1,-5,-1
32741279796,-3,-2,-5,7,-4,-1,1,-3
32741281552,11,5,2,-48,1,-1,-2,-1
32741281552,-17,-3,2,-19,-9,0,-1,-1
32741293725,1,-1,-5,-7,0,-1,-1,-2
32741293725,3,-2,-3,-8,1,-2,0,-1
32741302405,4,1,-17,20,1,-1,0,1
32741302405,1,-1,3,-6,9,1,0,0
32741317447,1,-1,12,-3,-4,-3,-3,-3
32741317447,-5,0,10,16,-4,-3,0,-2
32741319043,-1,-2,-11,-8,-3,-1,-3,2
32741319043,2,-2,-9,-14,-1,2,-4,-2
32741339886,5,4,4,37,0,-1,-2,-2
32741339886,3,0,1,-16,5,5,3,1
32741341520,0,-3,-6,-3,-4,-2,1,3
32741341520,2,-1,-1,24,2,0,0,-1
32741354272,4,0,9,2,-4,-1,-1,1
32741354272,0,2,1,-7,-1,2,1,1
32741361005,-1,-2,0,5,3,-1,-3,-3
32741361005,-3,0,-13,1,-4,0,-2,0
32741377310,5,1,11,-6,-1,-2,-2,-1
32741377310,0,0,1,-12,1,0,-3,1
32741378859,-1,-3,0,4,0,0,1,0
32741378859,-3,-1,-8,19,-1,-1,-1,-2
32741399773,-4,-2,1,-4,4,-1,2,-1
32741399773,-2,-5,-6,-3,-5,-4,-2,-3
32741401352,4,2,11,-19,1,-1,-1,1
32741401352,-19,-3,2,12,-5,-3,-1,-3
32741414200,-2,-3,-7,-17,-6,-3,-1,-3
32741414200,1,-2,-2,-6,0,1,2,1
32741421087,-4,-1,10,4,3,0,1,-2
32741421087,8,0,-5,-6,1,1,2,1
32741437441,-4,3,3,3,0,0,-2,0
32741437441,3,0,-2,-7,-2,-2,0,0
32741438942,-1,-4,-5,-32,-3,-1,-3,-5
32741438942,5,3,1,58,-1,-2,1,4
32741459839,-2,-2,-8,-25,-2,-2,-3,0
32741459839,3,3,4,29,0,0,1,1
32741461535,-9,-5,-8,-21,5,-1,-3,-3
32741461535,3,-1,11,-7,0,-1,0,-3
32741474230,-4,-4,-23,7,0,2,0,-3
32741474230,3,-1,2,-19,1,-1,-3,-1
32741498112,-6,-2,-8,16,-2,-1,3,3
32741498112,3,1,9,-10,3,0,-1,1
32741498715,2,-1,0,0,-2,-2,-1,3
32741498715,-1,-5,-35,-24,-7,-2,0,-3
32741500375,2,5,19,43,1,2,-1,-1
32741500375,1,-2,4,-13,0,-1,-2,-1
32741519783,4,2,-4,-7,-7,0,-1,-3
32741519783,-5,-1,12,0,-1,-1,-1,0
32741521380,-1,2,0,-4,5,-1,0,0
32741521380,-2,-5,-9,2,-2,-1,1,-1
32741534191,0,0,-5,-9,2,1,-2,-1
32741534191,-4,-2,4,-5,0,-2,-1,-1
32741541036,1,2,-3,16,-3,0,0,-1
32741541036,4,2,15,3,0,0,-3,-2
32741557346,-3,0,-5,-9,0,-4,-1,-2
32741557346,-3,-1,-7,-6,-2,-1,1,1
32741558964,0,-1,9,15,-1,-3,-1,2
32741558964,-1,1,-13,-29,1,-2,-2,-2
32741579858,1,-4,-10,14,-2,-1,0,1
32741579858,-1,4,40,4,-1,2,0,-1
32741581395,-2,-4,-18,-11,0,-2,-2,-1
32741581395,2,1,-4,-14,-4,1,0,0
32741594241,-2,-2,6,14,1,0,-2,-2
32741594241,2,-2,1,-16,1,3,0,1
32741601055,-4,-2,-9,17,-2,1,-1,1
32741601055,-1,0,-4,-20,-6,-3,1,-1
32741617439,-1,0,8,-5,2,1,-3,-2
32741617439,-2,-1,-3,6,-1,0,0,0
32741618920,3,-2,1,-7,0,-1,0,-2
32741618920,1,-1,-4,-6,-3,-1,-2,1
32741647483,1,1,-1,-6,3,-2,0,0
32741647483,0,-2,-23,-8,-2,0,-1,-2
32741648873,-2,1,9,13,3,1,-1,-1
32741648873,-5,-2,12,13,-5,-2,-3,-1
32741653570,2,1,3,3,-4,-1,-1,2
32741653570,-3,-3,-11,-6,-2,-2,-2,-1
32741662432,-1,1,-1,-16,-1,0,-1,-3
32741662432,6,-2,-12,13,-2,1,-1,6
32741677432,-2,3,-9,-4,2,1,-1,5
32741677432,16,2,26,-13,-3,0,-1,7
32741679031,-14,-8,-13,34,-2,-2,-1,-5
32741679031,-11,-2,5,-34,12,0,-3,-5
32741699973,35,3,-9,35,-12,0,-12,0
32741699973,-59,-1,-26,21,-4,1,22,8
32741701406,31,4,48,-34,5,0,-1,33
32741701406,-9,-4,-34,-6,-6,-10,3,-18
32741713428,-1,-2,8,100,12,3,-5,-14
32741713428,-8,1,-2,-112,-23,-9,-7,-16
32741722464,28,1,-37,36,-1,0,8,4
32741722464,5,-2,11,-62,2,1,-3,12
32741737434,12,5,43,24,5,2,-4,2
32741737434,7,-6,-45,86,6,-7,-12,0
32741739048,-27,-1,7,-88,-20,-1,-1,-15
32741739048,50,-3,-3,70,-1,-2,-5,4
32741759886,-76,-3,-3,-22,-3,-3,1,-5
32741759886,9,7,31,1,14,8,-7,0
32741761381,-19,-6,-6,47,0,-2,8,-6
32741761381,6,-3,-16,44,0,3,5,-5
32741773520,10,-1,0,-70,-8,-3,8,2
32741773520,14,0,3,36,-1,-1,-7,0
32741782443,-5,0,-13,-23,2,-1,-1,-2
32741782443,6,4,23,8,-2,1,0,0
32741797397,-48,-7,-21,77,10,1,-1,-3
32741797397,7,0,4,-90,-14,-4,6,-3
32741798925,11,1,22,-14,0,-1,-15,0
32741798925,-16,-4,-10,41,5,-2,1,1
32741819924,20,-2,-35,-62,-3,1,0,5
32741819924,-2,1,4,14,9,-2,2,0
32741821570,-3,3,-1,24,0,-1,-1,-1
32741821570,-10,1,14,-38,-6,0,-4,0
32741833516,7,-3,7,-19,0,-1,2,-1
32741833516,4,-1,-1,12,3,2,1,0
32741842440,3,0,-4,-52,6,2,0,-4
32741842440,-8,4,-15,-1,1,0,2,-2
32741857477,7,2,11,-3,-13,-6,1,0
32741857477,-1,-8,2,24,5,0,-2,0
32741859033,-3,0,-4,-5,1,-1,-4,-2
32741859033,-12,-2,-6,-31,0,3,1,0
32741879866,10,1,0,-10,-2,-3,0,1
32741879866,1,-2,1,-1,-1,-3,-5,-2
32741881422,-3,-1,-4,27,0,0,0,-3
32741881422,-3,-2,7,0,-1,0,2,0
32741893423,5,-2,1,0,1,3,0,1
32741893423,2,-1,-15,-4,1,2,-1,-2
32741909967,-4,1,23,29,-3,-2,-4,-6
32741909967,5,-1,13,9,-4,-3,-1,1
32741917098,-12,-2,10,-35,-4,-2,0,-1
32741917098,1,-1,-7,-5,-1,-1,0,1
32741925545,0,1,-7,12,-2,-1,0,-2
32741925545,-7,-1,-1,-5,0,1,0,-3
32741939840,7,-3,-1,-20,0,0,1,-2
32741939840,2,4,-2,29,4,3,1,-1
32741941471,-4,-2,-19,9,-5,-1,-1,0
32741941471,0,0,19,-85,-7,0,-2,1
32741953448,3,4,-7,50,7,-1,-2,2
32741953448,-4,0,15,25,1,0,0,-2
32741962504,1,1,0,-4,1,0,-1,0
32741962504,-3,-1,-15,2,2,1,1,0
32741977445,2,-2,1,-6,-2,-3,0,0
32741977445,-3,1,-1,-14,-2,0,-1,-1
32741978891,0,-1,-7,18,5,-2,0,0
32741978891,-1,1,0,-17,-5,-5,-1,-1
32741999894,2,-4,-10,-14,-2,-1,1,-2
32741999894,3,0,8,-16,-5,-1,-2,-1
32742001393,-1,-5,7,24,1,-2,2,-1
32742001393,-4,0,-7,15,2,0,-1,0
32742013429,2,0,2,-2,0,-1,-1,0
32742013429,0,-4,-3,3,2,0,0,0
32742022393,-2,-1,-3,-41,-5,1,-2,-2
32742022393,-2,1,3,55,1,0,-2,-2
32742037072,8,-1,-1,-8,-3,-2,0,2
32742037072,-8,-2,-2,-6,-2,0,1,1
32742043460,-5,3,-2,-9,-2,-1,-2,-4
32742043460,7,-2,0,18,0,-2,1,-2
32742059861,1,-3,-1,-14,-1,0,0,0
32742059861,-1,-3,1,6,0,-2,0,0
32742061492,-1,1,-4,-5,1,1,-1,1
32742061492,-1,-1,-4,-9,0,1,-2,0
32742082405,-1,-1,-12,-45,-1,-2,-1,-1
32742082405,-1,0,22,33,2,3,-2,-1
32742083928,-3,1,11,-31,-2,4,1,2
32742083928,-4,-1,-10,6,0,-1,0,0
32742097430,-1,2,-2,-20,0,-1,1,0
32742097430,1,-1,-12,9,2,-1,2,-1
32742098988,5,0,-7,6,-1,-1,-1,2
32742098988,-2,-1,8,-9,1,-1,1,0
32742119804,-2,1,1,22,-2,1,-1,0
32742119804,2,-1,-21,-28,-2,-3,-1,-1
32742121408,-4,-4,26,2,3,-2,-1,-2
32742121408,5,1,2,22,-5,-1,-3,-1
32742142480,0,0,1,-38,-1,2,1,-1
32742142480,-2,0,10,7,-2,-3,0,-3
32742143931,5,1,-9,12,2,1,2,-3
32742143931,-4,-3,-3,-28,0,-2,-1,-1
32742157449,2,-1,8,16,3,3,-2,-1
32742157449,1,-2,-6,-8,-4,0,-1,1
32742158894,-2,-1,-8,5,2,-1,0,-1
32742158894,1,2,-5,-24,0,2,2,1
32742179928,0,-5,11,78,1,-3,2,-1
32742179928,-2,-2,-4,-49,-1,0,1,1
32742181462,-2,2,7,61,-1,-1,-2,-2
32742181462,-4,-2,-3,-12,-6,1,-3,-1
32742202456,-4,1,-3,-21,0,-2,1,-1
32742202456,1,2,0,5,3,-2,-2,-1
32742204047,1,-2,-6,-13,-1,0,2,0
32742204047,2,-1,5,6,4,-1,0,-1
32742215984,-2,-1,-6,-6,-4,0,-1,-1
32742215984,0,0,0,16,-1,-1,-1,1
32742224966,-1,0,-13,-24,-4,1,-1,1
32742224966,-6,1,12,45,1,-1,-1,0
32742239971,2,1,6,4,3,0,-1,-1
32742239971,-7,0,4,-29,-6,-2,0,-2
32742241431,6,-2,-3,7,-1,0,0,-1
32742241431,-2,-3,-3,-15,0,1,2,0
32742262453,0,0,-3,16,1,-1,-1,1
32742262453,0,-1,-2,0,0,1,1,-1
32742264050,-2,-2,-2,-11,-2,-2,-2,-1
32742264050,-1,0,-6,20,3,-1,-1,-2
32742276776,-1,0,-1,-38,-2,-2,-1,0
32742276776,1,-1,-8,39,2,-1,-1,-1
32742291093,-2,0,9,-6,1,-2,-1,1
32742291093,1,-2,5,52,0,-1,-1,-1
32742299901,-5,-3,4,-41,-8,-6,-1,-1
32742299901,0,-2,4,11,3,4,1,1
32742301657,-3,0,-14,-15,-3,-1,-3,-1
32742301657,1,1,1,13,0,1,-3,-2
32742322297,5,1,-5,-4,0,-1,0,-1
32742322297,-15,-2,3,6,0,-3,0,-1
32742323961,2,1,-3,9,0,0,1,-2
32742323961,-3,-5,6,-35,-2,-4,-1,0
32742336774,-2,-2,-1,23,-3,0,0,0
32742336774,4,-2,-8,-31,-2,-2,-3,0
32742343641,-3,-2,6,71,4,3,1,-1
32742343641,-1,2,-6,-81,-7,-1,1,-3
32742359969,-1,-1,-2,7,2,1,-4,0
32742359969,0,-1,3,13,0,-3,-2,-4
32742361393,-5,-1,-3,-33,-1,1,1,-1
32742361393,6,1,0,22,-1,1,-4,-1
32742382346,-1,0,1,0,0,1,1,0
32742382346,3,2,-4,1,0,-2,-2,-1
32742384051,0,-2,3,-14,-3,0,-2,0
32742384051,-1,0,-3,3,-2,0,-1,0
32742396635,0,-4,-6,-11,-2,0,-1,-1
32742396635,1,0,0,16,-4,-2,-2,0
32742403597,-1,-1,-4,-28,0,-3,-2,-3
32742403597,-6,-2,1,17,1,0,1,-1
32742419827,3,2,7,32,4,-1,-1,-1
32742419827,-1,-1,5,-39,-3,-1,0,-2
32742421472,3,-1,1,-13,-4,-2,-1,0
32742421472,-2,-2,-4,0,2,1,-1,1
32742442458,-1,0,-3,4,-1,-2,1,0
32742442458,2,-3,1,-25,-3,0,0,0
32742444138,0,1,-10,72,3,0,2,3
32742444138,0,0,11,-23,-5,-1,-1,0
32742456811,-3,-3,-10,-17,-3,-1,1,-1
32742456811,1,1,-13,4,1,1,-1,1
32742463637,-2,-3,3,-9,-1,-1,0,0
32742463637,1,2,-8,15,1,0,0,2
32742479981,-2,0,3,2,-1,0,-2,0
32742479981,0,3,-5,1,-2,-3,-1,-1
32742481449,0,-2,-6,-8,-2,-1,-1,0
32742481449,-1,-1,3,10,4,-5,-3,-2
32742502415,7,1,9,-21,-4,0,1,-1
32742502415,-3,3,1,-12,5,1,0,-1
32742504080,0,0,2,24,-3,-4,0,0
32742504080,-2,-2,-4,-11,-1,-1,0,-1
32742532316,1,-1,-4,6,3,2,-3,-2
32742532316,2,-1,-3,9,3,-2,-1,-1
32742533978,-2,-1,4,-25,-2,-1,-1,-2
32742533978,0,0,-5,-3,0,2,2,1
32742539864,-5,-2,-2,52,6,2,0,0
32742539864,0,-2,1,-67,-13,-1,-2,0
32742541544,-3,-1,4,-9,2,0,-2,-3
32742541544,-3,-3,-2,0,-7,-5,-2,-2
32742562500,-3,0,1,9,1,0,1,-1
32742562500,-1,-3,-1,25,1,-3,2,-3
32742564064,-1,-3,8,-8,-1,1,1,-3
32742564064,-4,0,-9,-8,2,0,-1,-4
32742576826,-6,0,-3,-13,-2,1,-2,1
32742576826,4,0,8,30,-1,-1,-1,0
32742583624,-1,0,-1,-20,1,0,0,1
32742583624,1,-1,-6,5,3,1,1,0
32742599981,9,1,5,-15,-2,1,0,1
32742599981,-9,-3,-6,25,-1,0,-1,1
32742601448,0,0,-4,-19,-1,-4,-1,0
32742601448,0,0,4,29,-3,-2,0,1
32742622454,3,1,-6,13,-3,-2,-2,-1
32742622454,1,-3,0,-37,2,1,-3,-2
32742623993,1,0,17,-2,-3,-2,-2,2
32742623993,-2,-1,-5,-4,1,-2,-2,-1
32742636171,-5,-2,-3,-10,3,1,2,-1
32742636171,1,2,2,25,1,-2,1,-1
32742644954,-1,-3,-9,-8,-5,-3,-3,-3
32742644954,1,-2,-1,-13,3,6,-1,-1
32742660002,2,-1,5,6,-4,-3,-5,-1
32742660002,1,0,2,8,1,2,-1,-1
32742661660,0,0,-7,-4,2,1,0,-3
32742661660,-3,0,1,8,-3,-3,1,-1
32742682474,-4,-3,-3,-11,-2,-4,3,-1
32742682474,0,-1,0,16,3,0,1,-1
32742684094,-1,0,-2,-11,-2,0,0,1
32742684094,2,-2,-3,-3,1,-1,-1,0
32742696152,4,-1,-1,-12,-2,-4,0,-1
32742696152,-7,-2,-3,-2,-3,-3,-1,-1
32742711009,5,1,-2,10,-2,-1,-1,1
32742711009,-2,-1,2,-3,4,4,-3,-2
32742719988,3,4,-12,-8,-2,-4,-1,-2
32742719988,2,0,8,11,2,0,1,-1
32742721646,-6,-1,-5,1,-1,-4,-2,-2
32742721646,2,2,2,-3,-4,-4,0,1
32742742554,-4,-2,-3,-6,-3,0,-2,-2
32742742554,-1,-1,-3,1,-4,1,0,2
32742744116,-2,-1,-4,-1,0,-2,-2,1
32742744116,2,-3,5,1,0,-1,1,0
32742756133,-3,-1,1,0,-6,-3,-1,-1
32742756133,-3,-3,-4,-1,2,1,-1,-1
32742764984,7,1,0,0,0,2,2,0
32742764984,5,0,-5,1,-6,-1,0,1
32742779916,-5,3,14,0,3,2,-2,-3
32742779916,-2,-5,-2,-4,-8,-1,-2,-2
32742781444,-1,-2,-6,-3,-3,-3,0,0
32742781444,-4,1,3,0,4,2,0,-2
32742802453,0,-1,-1,0,2,1,2,3
32742802453,1,-4,-1,-2,-1,-3,-3,-1
32742803968,8,1,3,1,-1,0,-2,-1
32742803968,-3,-1,-6,-7,-5,-5,-4,-1
32742815997,-4,-3,3,1,8,7,4,1
32742815997,-4,0,0,0,-5,-1,2,1
32742825002,9,0,-3,-2,-3,-3,-4,-1
32742825002,2,-3,-1,-3,0,-1,0,0
32742839973,1,-1,-4,-2,-4,-3,-5,2
32742839973,1,3,1,0,1,-1,-1,0
32742841544,-10,-1,-8,1,5,4,3,0
32742841544,-2,-5,3,-7,-2,2,-1,-3
32742862483,-1,-1,-1,0,-1,3,-1,-2
32742862483,3,0,1,1,2,-2,-1,3
32742864123,-3,2,-2,-4,-2,-3,-2,-2
32742864123,0,2,0,5,0,-3,-2,0
32742876160,-2,-8,2,0,6,0,0,0
32742876160,2,0,-6,-2,-5,-7,-2,0
32742884950,-4,0,-12,1,3,1,0,-1
32742884950,4,1,11,2,0,2,2,1
32742900000,-3,2,-11,-6,-3,-3,-5,-1
32742900000,4,-4,-5,-3,-3,-2,-2,-4
32742901646,-4,2,9,3,-4,-1,-2,0
32742901646,3,-1,-11,0,-1,0,-3,0
32742922951,1,6,8,0,-2,1,1,0
32742922951,-3,-1,3,2,2,4,-1,0
32742924436,-1,-4,0,-5,-4,5,0,0
32742924436,-4,-1,-8,0,4,6,0,-1
32742936149,1,-1,9,-1,-6,1,-2,-1
32742936149,0,1,2,3,1,3,-2,-2
32742944967,-3,-7,3,3,2,3,2,-4
32742944967,-5,0,6,4,4,-7,0,1
32742959383,0,-3,-3,-6,-9,-13,-1,-1
32742959383,4,9,-1,0,1,-5,2,1
32742966206,2,4,14,-1,-14,-14,-2,0
32742966206,-4,-12,-57,1,12,-4,0,-3
32742982470,-3,-1,14,3,5,2,3,-1
32742982470,-3,-7,0,-3,-3,-3,-3,-3
32742984107,1,7,10,-1,-5,-7,-3,1
32742984107,0,-4,11,-5,-3,-5,-1,-1
32742996155,2,-3,-16,-1,-3,-12,-1,0
32742996155,-2,-1,-5,3,5,-6,2,0
32743005000,-3,-1,4,0,5,-15,1,-2
32743005000,2,6,10,-2,-4,-18,-1,0
32743019818,-1,-6,-7,2,-2,-13,-3,-1
32743019818,-3,1,7,-3,7,-1,-1,0
32743025922,-1,-6,-15,-2,0,23,0,2
32743025922,0,1,13,-4,-10,29,-3,-1
32743042800,4,9,6,-2,0,29,0,-1
32743042800,-7,-1,-3,9,11,30,5,-2
32743044462,-3,-4,-10,-1,3,13,1,0
32743044462,0,3,1,-3,-8,-5,-1,-1
32743064795,-1,4,12,-1,-5,-9,-2,-1
32743064795,3,-7,-1,-5,-6,-12,-1,-1
32743066582,-1,2,-3,0,1,-14,-2,-1
32743066582,-1,1,-23,-2,-4,-9,-2,-1
32743079330,2,-2,-10,4,2,-7,-4,-3
32743079330,-2,2,16,6,4,0,4,1
32743085942,-4,-3,8,3,0,-6,0,0
32743085942,-1,3,1,-3,-8,-12,-3,-3
32743102539,4,-5,-8,1,7,-2,1,-1
32743102539,0,-3,-9,-7,-6,-9,-2,1
32743103947,-2,2,6,-2,-5,-4,-9,-2
32743103947,-5,-2,14,10,9,11,6,0
32743123990,-4,-3,-11,-7,-2,3,-1,-2
32743123990,1,1,-1,-1,-4,1,-1,1
32743132469,1,-4,-10,-6,-2,-1,-1,-1
32743132469,2,2,5,-1,-4,-5,-1,-1
32743139175,1,-3,-5,0,-3,1,0,0
32743139175,1,2,-1,-1,-3,-8,-1,1
32743145915,0,0,-7,0,1,-7,-1,0
32743145915,1,0,9,-4,1,-4,-1,-1
32743162357,-4,-3,-1,6,4,1,4,1
32743162357,-1,0,-8,-6,-5,-6,-3,-2
32743163975,1,2,2,0,-2,2,0,-1
32743163975,2,-2,0,2,-1,4,-2,0
32743185023,-3,1,2,-1,-3,5,2,0
32743185023,2,0,3,3,0,3,-4,0
32743186615,-1,1,2,0,-1,3,0,0
32743186615,0,6,6,3,0,6,1,0
32743199315,-2,-1,-1,-5,-2,3,1,1
32743199315,-2,-3,-9,-5,-6,3,-2,-3
32743206162,-2,-4,2,0,2,4,0,-4
32743206162,-4,-8,-3,-5,-3,3,-2,2
32743222329,3,-1,-4,-1,-3,-2,-4,-1
32743222329,-3,0,0,-2,0,6,2,0
32743224128,3,2,1,-3,-5,-2,-1,2
32743224128,-2,1,-1,3,6,1,2,0
32743245552,-1,2,3,-3,-1,-6,-1,1
32743245552,0,0,-5,-5,-4,-4,-2,1
32743247130,-3,-7,-5,-2,-2,-1,-2,-2
32743247130,12,0,-2,-2,-1,-1,-2,-2
32743259159,3,2,-6,3,0,-1,-1,-1
32743259159,-7,-2,0,4,-1,3,-1,-2
32743265941,-4,-4,-5,1,3,7,1,-2
32743265941,-2,4,11,3,4,2,0,-1
32743281595,3,-5,-4,-6,-7,-2,-1,-2
32743281595,5,6,3,1,1,0,0,2
32743289979,-3,-3,-6,1,2,5,2,0
32743289979,-7,-4,-1,-2,-4,2,-1,-2
32743304875,5,7,10,0,2,4,3,2
32743304875,2,-9,-2,3,1,3,0,-2
32743306518,-10,-7,-7,-6,-6,-2,1,2
32743306518,0,1,1,-3,-5,-7,-3,-1
32743319257,-4,4,4,7,9,2,-1,-1
32743319257,-1,0,-4,-5,0,0,0,2
32743326061,7,5,6,1,-1,-3,-1,0
32743326061,-6,-2,-3,-3,-1,-1,0,-1
32743342330,-16,-11,-11,-10,-5,-7,-1,-2
32743342330,-1,0,5,-1,-1,-7,-1,-2
32743343911,0,0,5,4,1,1,1,0
32743343911,8,2,-10,-8,-11,-10,-5,4
32743365555,-5,-1,3,5,15,15,2,-1
32743365555,-2,2,6,1,4,6,3,16
32743367140,11,3,0,-5,-2,1,-3,-4
32743367140,-36,-3,2,4,-2,-1,-2,-5
32743379345,-4,-6,-16,-9,-9,-10,-6,-5
32743379345,18,2,12,2,-1,-2,1,2
32743386132,-7,5,2,7,7,0,0,1
32743386132,6,-17,-20,-5,-2,2,2,-11
32743402416,6,6,9,2,-3,-5,-3,-14
32743402416,-42,-4,-7,-5,-4,0,-1,-6
32743404084,12,7,3,7,3,-1,0,-3
32743404084,7,1,8,-9,-4,0,-3,1
32743425060,-13,-8,-2,0,0,3,2,2
32743425060,13,-4,-10,0,-2,-6,-2,-8
32743426634,5,7,2,3,5,3,0,4
32743426634,1,-1,-7,5,1,-3,0,2
32743439296,-2,-7,-8,1,2,3,1,3
32743439296,1,1,1,-6,-4,-1,-1,-2
32743446064,-12,-11,-9,-8,-4,-4,-1,-1
32743446064,5,1,-1,2,-1,-3,-1,0
32743462457,9,5,6,-2,-7,-2,-1,-2
32743462457,0,1,3,6,4,0,-3,-6
32743463981,-8,-10,-10,-9,-5,-3,-1,-1
32743463981,4,-4,-8,-3,-2,1,-1,-1
32743484819,6,8,4,2,-2,-3,-2,5
32743484819,1,4,4,1,1,0,2,2
32743486404,1,-4,-3,2,7,1,-2,0
32743486404,5,3,4,-1,3,2,2,4
32743499443,3,2,-1,0,0,0,0,1
32743499443,-3,-6,-3,-5,2,0,-1,-4
32743506125,2,2,5,-2,-5,-7,-2,-3
32743506125,0,5,10,7,4,4,2,1
32743522499,-6,2,4,3,2,2,1,-1
32743522499,5,1,-2,0,-2,-4,-2,-3
32743524048,0,-3,-2,-2,-2,-3,-1,1
32743524048,-4,0,2,2,5,2,2,0
32743544901,1,0,11,3,2,-2,-2,0
32743544901,2,-3,-14,-8,-8,-2,-3,-2
32743546432,6,-2,-6,0,-1,-1,1,1
32743546432,-1,7,7,3,1,0,1,0
32743558664,-4,-11,-12,-11,-4,-5,-3,-4
32743558664,0,1,4,3,0,4,1,-1
32743567503,-1,5,6,2,3,-1,0,-1
32743567503,-2,-5,-6,0,0,-6,-15,-5
32743582504,4,1,-2,-3,-5,9,14,5
32743582504,-6,-1,0,3,5,4,5,-4
32743584085,1,0,0,-3,-5,-17,7,-1
32743584085,4,6,5,5,2,6,-32,9
32743604845,-4,-3,2,-1,-1,3,-3,-1
32743604845,-1,-3,-5,-2,0,3,4,0
32743606608,-5,-5,-2,5,1,7,-11,0
32743606608,-5,-2,-2,-5,1,0,14,-3
32743618676,6,1,-2,-3,-6,-13,-6,-2
32743618676,3,1,1,0,-2,-3,-9,1
32743627562,-1,4,9,11,10,5,9,-1
32743627562,-3,-6,-13,-10,-9,-14,2,-3
32743642378,-7,-10,-1,-15,-5,-5,-5,-5
32743642378,1,2,-9,0,-3,-2,3,1
32743643940,1,0,5,-3,-1,2,-3,-1
32743643940,0,0,7,2,-3,5,9,-1
32743664953,-1,1,2,9,8,6,-6,1
32743664953,0,3,1,8,1,-2,0,2
32743666668,-2,-1,-7,-26,-8,-4,-2,-1
32743666668,3,-2,0,3,3,-2,-1,-2
32743678597,-1,2,2,0,2,-4,4,0
32743678597,-3,-4,-2,4,3,-4,-4,-2
32743687519,-2,1,-2,1,-1,5,2,-1
32743687519,0,1,-1,1,1,0,4,-2
32743702388,0,-1,-2,-2,-5,-5,-4,-1
32743702388,-2,-1,9,-5,2,3,3,1
32743704002,-2,-3,0,4,-3,0,-3,0
32743704002,-1,-3,-4,-6,-5,0,1,-1
32743724923,-7,0,2,16,2,1,1,1
32743724923,3,4,9,-16,-5,-2,-3,-3
32743726518,-1,-10,-24,-7,-5,-3,2,-1
32743726518,1,1,4,3,4,0,-3,-1
32743738567,1,5,1,3,-3,-1,1,3
32743738567,-4,-5,-1,-1,-2,-7,-4,-1
32743747567,-5,-10,4,5,3,5,1,0
32743747567,2,3,3,-8,-4,-4,2,-1
32743762377,1,-1,-8,0,1,-1,-1,-2
32743762377,1,1,-1,3,11,7,1,0
32743763924,-1,-4,-13,-1,-3,-5,-4,-3
32743763924,0,-1,-6,-5,-4,-5,-1,0
32743785012,0,-9,-23,-3,3,6,1,-1
32743785012,-1,-1,11,1,-2,-1,0,1
32743786466,-2,4,-1,1,-4,-1,-1,0
32743786466,-1,1,0,1,-1,-2,1,0
32743798655,1,2,-3,-5,-3,-1,-1,0
32743798655,-1,-3,-12,1,-2,-5,-2,-1
32743807567,2,2,-1,-9,-1,1,-1,-1
32743807567,-1,-2,5,8,1,4,1,1
32743822499,2,5,14,-4,-2,-5,-4,-2
32743822499,-1,-5,-19,-3,-1,2,0,-1
32743824005,4,5,10,3,-4,-7,-1,-1
32743824005,-5,-2,-2,5,4,6,1,-1
32743844878,0,1,3,-7,-4,-5,-1,0
32743844878,0,2,4,6,-2,-3,0,-1
32743846667,-7,-1,3,5,0,4,0,-1
32743846667,-4,-8,-9,-4,1,0,-1,-2
32743858655,-1,-5,-3,1,-3,-1,0,-1
32743858655,2,-2,-2,-3,-4,-4,0,-1
32743867521,3,7,3,1,1,-3,-2,-2
32743867521,0,-6,-1,-3,-1,-2,-2,-3
32743882576,-2,0,-4,-3,-2,1,-1,-1
32743882576,1,0,2,-1,1,-1,-2,0
32743884110,-1,2,-12,0,3,0,1,1
32743884110,-2,-6,-2,0,1,-2,0,-2
32743905000,-1,-1,-6,-1,1,-2,-1,-1
32743905000,-2,2,4,0,-4,1,1,-3
32743906468,-2,-2,-1,2,3,1,-2,-2
32743906468,1,0,-1,-1,-4,1,1,0
32743918705,-1,-2,1,1,0,-2,0,0
32743918705,-4,-2,-4,-1,-3,-2,-3,0
32743927527,0,3,11,-1,-3,-1,1,0
32743927527,1,4,-13,-4,-1,-3,1,2
32743942503,-3,-6,21,1,0,1,-1,-2
32743942503,1,3,-1,2,2,-1,0,0
32743944157,-1,-2,10,-2,-2,1,0,0
32743944157,1,4,-5,0,1,2,0,-2
32743964880,0,-2,-4,-2,-1,-1,1,-1
32743964880,-1,-2,-4,1,-1,-1,-2,-1
32743966537,-1,-1,4,0,-1,0,-2,0
32743966537,1,2,9,1,0,-1,1,0
32743987435,-1,-1,-19,-1,-1,0,0,0
32743987435,-2,5,18,0,-3,0,0,-1
32743989169,0,-4,-1,-3,0,1,-2,-2
32743989169,-1,1,3,1,5,1,-1,-2
32744001748,0,-2,-3,-2,0,1,-1,-1
32744001748,0,-5,-11,-1,0,1,0,0
32744008478,1,9,3,1,-1,3,0,1
32744008478,-1,-6,-9,5,-1,2,-1,1
32744024844,0,-3,-1,-4,1,2,-2,0
32744024844,-2,-1,-19,3,3,3,0,0
32744026450,0,0,9,-14,-2,-1,-2,-1
32744026450,-2,0,0,1,-2,-3,-2,-1
32744047417,0,4,-7,-2,4,0,-2,-1
32744047417,0,4,17,10,1,-2,0,-1
32744048997,-2,-7,-12,0,0,-1,0,-2
32744048997,-1,0,1,0,0,-1,1,1
32744061858,0,-5,9,-4,1,-1,-1,-1
32744061858,0,2,5,-8,-5,-4,0,0
32744068555,-1,-7,-2,4,-2,-3,0,-1
32744068555,0,5,5,4,4,0,1,-1
32744084988,-1,-4,-31,-4,2,-3,2,1
32744084988,-1,2,22,-3,2,-2,0,-1
32744086657,1,3,16,2,-4,-5,0,0
32744086657,0,-4,-6,-4,-4,-2,-1,-3
32744107560,-2,3,5,4,9,-1,0,-3
32744107560,-1,-5,-15,-4,-2,0,1,-1
32744109101,-2,-4,-15,-3,3,1,-2,1
32744109101,2,-1,3,-1,-3,-4,-3,-1
32744122271,-3,5,30,13,-4,-2,-2,-2
32744122271,-2,0,1,-24,-4,-2,0,0
32744130063,-3,-13,-9,12,4,-1,0,-1
32744130063,-3,-2,3,-6,-2,-2,0,-2
32744145129,2,7,1,12,1,1,-4,0
32744145129,-4,2,-6,-1,1,-1,-1,-1
32744146644,-2,0,-10,-9,-10,0,1,-1
32744146644,2,-1,-10,-1,17,2,-1,1
32744167464,1,-2,7,-3,-4,-2,-1,1
32744167464,2,-2,-34,-7,1,-1,-1,0
32744169135,-7,-2,18,-1,-2,-2,-4,-3
32744169135,-3,-2,-5,-5,-4,0,0,-1
32744181781,-2,-3,-22,7,-4,-1,1,-2
32744181781,1,1,12,-17,-1,2,0,0
32744188688,5,9,32,28,10,4,-1,-1
32744188688,-5,-4,-7,-4,-9,-2,0,-1
32744205062,-2,-7,-13,-22,-7,-3,-1,-1
32744205062,-1,0,-13,-8,-4,-2,-3,1
32744206545,0,2,6,7,1,-2,-2,0
32744206545,4,10,42,22,0,-2,-3,-3
32744227521,-1,0,19,20,-2,0,-4,-1
32744227521,-7,-10,-31,-62,-1,2,1,-4
32744229007,1,3,-4,-6,3,-2,0,-1
32744229007,2,-9,-46,17,-2,-2,0,1
32744241843,-5,3,46,3,-14,-5,0,-3
32744241843,2,1,-32,-28,17,1,-1,1
32744248737,0,2,10,38,1,2,0,0
32744248737,-2,-6,-41,-27,-6,-3,1,0
32744265062,4,2,20,49,8,4,0,2
32744265062,-2,-2,14,-27,-5,1,0,-2
32744266726,4,6,-26,-5,2,1,0,-1
32744266726,-2,-8,31,38,-4,-2,-1,-1
32744287549,-1,-2,-18,-27,-6,-3,0,1
32744287549,2,5,20,45,2,1,-1,0
32744288998,-1,9,-9,-23,-9,-2,1,1
32744288998,-4,-36,7,-9,-4,-2,-1,-1
32744301046,0,13,-20,-4,8,2,-1,-2
32744301046,1,-17,-45,11,0,-2,-1,1
32744310017,1,10,31,-20,2,1,1,2
32744310017,0,4,-1,-9,0,1,0,-1
32744325042,2,3,3,1,1,0,0,2
32744325042,-1,-3,8,-17,-1,-3,1,-1
32744326677,-4,-7,-34,-3,-6,-3,-3,-3
32744326677,-2,9,2,-18,-3,-2,0,-2
32744347573,0,-4,15,40,4,0,-1,-1
32744347573,-1,2,19,13,-2,-2,-2,-2
32744349041,0,-6,-22,-10,-3,-3,-1,-1
32744349041,0,8,-4,-30,-3,3,-3,0
32744361262,-7,-6,14,-6,-2,-2,2,-2
32744361262,1,1,-2,10,-7,-2,0,2
32744370071,-1,-8,-10,-15,-1,0,-2,-2
32744370071,1,7,8,15,3,-1,0,1
32744385051,0,6,-9,-27,1,-1,1,0
32744385051,-2,-9,23,57,3,-1,0,0
32744386693,0,-8,-28,-56,-5,-2,-1,1
32744386693,-5,7,13,16,-2,2,-1,-2
32744407609,7,-3,-27,-45,0,-2,0,0
32744407609,-2,3,12,47,-3,1,-1,-2
32744409095,-4,-4,1,-11,2,-3,-1,-1
32744409095,2,1,2,0,3,1,0,1
32744421196,-4,0,-16,-24,-2,-1,-2,-1
32744421196,1,-2,6,15,0,-3,-4,-3
32744430073,3,0,18,26,-1,-2,-2,-2
32744430073,-1,2,-1,-12,-2,-3,-1,-2
32744445008,-5,-4,-16,-10,-1,0,0,-2
32744445008,1,2,-7,19,3,0,-2,0
32744446578,-4,-2,3,-53,-9,-1,2,1
32744446578,1,0,-1,5,-3,-2,1,-1
32744467432,2,1,1,7,-2,0,-2,0
32744467432,-4,0,27,6,-4,-2,1,-2
32744468923,5,-4,-7,11,4,1,0,0
32744468923,-1,-2,-5,-17,1,-1,-1,0
32744481163,0,1,-8,20,-2,0,-1,1
32744481163,-1,-2,13,-3,0,-3,-3,-1
32744490074,-8,3,-19,17,0,0,0,-2
32744490074,6,4,1,-3,-3,-9,-28,-2
32744504460,1,-8,8,-7,-1,7,66,-2
32744504460,-7,3,4,-13,4,16,-20,10
32744505037,-2,1,16,11,2,-4,31,-1
32744505037,-8,-6,0,11,-3,-27,-38,-6
32744526882,0,4,-8,4,2,7,-30,-5
32744526882,1,0,-2,-10,-3,9,4,1
32744527493,-2,-6,0,4,-1,12,-1,1
32744527493,-4,4,4,-6,0,0,3,-1
32744549428,1,-5,-1,2,-4,-15,-10,-1
32744549428,2,3,-6,-6,-6,-16,-17,-7
32744550019,0,-5,-22,-6,4,15,17,3
32744550019,1,0,18,16,-1,1,27,1
32744564353,-7,-3,32,21,-3,-20,-65,-9
32744564353,7,9,-45,-4,2,9,20,9
32744565022,7,-15,20,17,3,7,40,1
32744565022,-15,-6,-51,-7,1,11,10,0
32744594954,2,3,21,36,1,7,7,4
32744594954,-10,-3,17,-39,-6,-19,-22,-9
32744595699,1,-1,-1,41,3,-9,-28,-5
32744595699,12,2,-29,-19,1,8,14,2
32744609291,-11,7,-6,-9,-2,-2,4,-2
32744609291,-3,-13,5,-17,5,-6,8,-4
32744610009,2,8,-19,-5,-5,-4,-8,0
32744610009,2,-1,25,-15,0,3,2,0
32744624329,1,7,1,2,-1,0,4,1
32744624329,5,0,-2,22,-1,2,9,1
32744625000,-6,0,2,-20,2,-4,-14,0
32744625000,-4,8,6,10,-1,0,-9,-1
32744646789,3,-6,-13,-13,3,2,8,2
32744646789,-3,-3,8,15,-2,2,9,-1
32744647543,1,0,11,16,1,-6,-16,-2
32744647543,0,3,-18,-22,-7,-1,5,-1
32744669458,-1,-10,-9,-13,2,4,5,1
32744669458,2,0,2,-5,-5,0,2,1
32744670021,-2,5,13,41,7,0,-11,-1
32744670021,1,-2,8,0,2,0,0,0
32744685757,0,-4,-5,-44,5,0,1,0
32744685757,2,5,3,48,-3,-1,-4,0
32744686558,-4,-3,-38,-62,-5,-6,-5,-1
32744686558,-2,-2,32,54,4,2,1,0
32744706939,-3,-2,5,-19,-5,1,1,0
32744706939,6,1,-1,-14,-2,-4,0,-3
32744707527,-1,1,12,23,-1,-1,-1,-3
32744707527,5,-1,-11,35,9,3,3,1
32744730102,-6,-2,-16,-70,-17,-9,-1,2
32744730102,-4,-2,-2,-13,3,-4,1,-2
32744730758,2,3,14,50,-3,-1,-4,2
32744730758,-1,-4,2,64,3,6,5,0
32744744322,2,0,1,-55,5,3,-2,0
32744744322,-2,0,-8,-1,-4,2,1,0
32744744958,-1,-4,5,-34,-3,-2,-5,-2
32744744958,1,6,-3,8,-2,-5,-6,0
32744766725,-11,-24,-7,67,-3,-4,3,-2
32744766725,2,1,0,-27,2,1,-1,-2
32744767616,1,5,4,9,-3,-1,-4,0
32744767616,2,0,6,-39,1,2,-2,1
32744781204,6,1,-2,6,-1,1,-2,1
32744781204,-5,-3,-11,16,-3,-5,0,-1
32744789428,-4,0,5,-4,-4,-5,-3,-2
32744789428,0,2,4,-43,-2,-2,0,-1
32744804361,1,4,-8,22,4,-2,-1,2
32744804361,2,-4,6,13,4,0,1,-2
32744805020,4,4,3,-3,-2,-1,0,-2
32744805020,-5,-7,-3,-22,-9,1,0,-2
32744826906,4,11,-5,21,4,0,-1,0
32744826906,-2,-6,13,9,3,2,0,-1
32744827558,-3,-1,-4,-14,-5,-6,-2,-1
32744827558,0,2,-13,-26,7,0,-1,-4
32744841224,-4,-14,3,17,-9,-5,-2,-1
32744841224,-2,4,-5,-20,-9,-4,-2,0
32744849448,-1,0,-1,6,8,2,2,-1
32744849448,-5,-9,9,6,-3,-1,-1,-2
32744864350,3,8,0,-4,1,3,0,1
32744864350,0,2,4,-5,4,2,-2,0
32744864998,0,-9,-2,4,-1,2,0,0
32744864998,-1,0,-1,-10,0,-2,-3,1
32744886925,-2,2,6,10,2,0,0,-4
32744886925,1,0,1,28,1,-2,-2,0
32744887545,-1,3,-16,-44,-7,-2,1,-1
32744887545,0,0,-8,-10,-2,-2,1,1
32744902592,3,-2,-9,7,1,-4,-3,-1
32744902592,-4,-3,30,24,3,-3,0,-2
32744909404,8,-1,-9,-9,0,-1,-6,-1
32744909404,-12,-3,12,29,-2,-2,1,-5
32744924444,3,4,-20,9,0,1,-7,1
32744924444,-1,0,-19,-44,-8,-6,10,1
32744925043,11,2,-9,4,2,-2,-5,2
32744925043,-42,-6,9,9,-2,0,-24,-4
32744946795,25,9,47,-4,-1,4,24,-7
32744946795,29,-1,-16,-5,-1,8,0,1
32744947613,-37,-14,-72,-34,-6,0,-3,-4
32744947613,10,10,71,30,0,-3,1,2
32744969926,-7,-4,-12,3,5,-1,-9,1
32744969926,-1,-1,-5,-10,-2,-1,-4,0
32744970716,2,4,36,1,0,1,6,-1
32744970716,10,-4,-19,-3,1,1,1,2
32744984176,-2,1,-7,-11,4,3,-1,1
32744984176,3,-3,19,-6,-1,1,2,1
32744984979,-5,-7,2,94,2,0,-3,-1
32744984979,3,3,-31,-57,-1,-4,1,1
32745006777,-1,-5,2,-14,0,-2,-2,-1
32745006777,-15,3,2,-3,-2,-2,-4,-3
32745007475,3,-8,3,-15,1,2,1,0
32745007475,11,9,-8,45,-4,1,3,0
32745029998,-2,3,-1,-33,-2,-1,-1,1
32745029998,-8,1,-1,24,5,1,-3,-3
32745031034,2,-3,13,-7,-7,-2,1,0
32745031034,9,-7,-18,38,3,0,3,1
32745044234,-7,-3,-2,-25,-8,-4,-5,0
32745044234,-7,2,-1,-8,1,0,-1,0
32745045023,4,-1,14,14,2,-2,-3,0
32745045023,5,-2,8,-13,-1,-1,0,-1
32745066715,-5,-3,-14,11,0,1,-2,-1
32745066715,2,4,-7,-11,-1,-1,-1,-1
32745067540,-2,-2,5,18,9,2,4,0
32745067540,0,-8,4,-34,-4,-2,-1,-1
32745089976,2,5,12,25,-2,-1,-1,0
32745089976,-2,-2,-12,-8,-3,-2,0,-1
32745090864,3,11,5,-4,-1,-1,-2,0
32745090864,0,-10,-19,-48,-5,-2,1,-1
32745104283,-4,-12,5,43,7,-2,-2,-3
32745104283,-4,5,-1,-29,-4,-3,-3,-3
32745104997,1,2,-10,-30,-5,1,0,0
32745104997,2,-1,0,53,1,0,-1,0
32745126766,-3,3,-18,-42,-7,-2,0,0
32745126766,1,0,-4,15,5,4,1,-1
32745127531,2,3,21,-20,-11,-3,-1,-3
32745127531,-1,0,14,60,-4,-3,-1,0
32745150002,-3,-2,-1,6,3,1,0,2
32745150002,-1,-4,-3,9,-3,-4,-2,-1
32745150741,-1,-4,-6,-18,3,0,0,0
32745150741,1,8,-3,-5,-5,-1,1,-1
32745164406,-1,-3,2,5,4,1,-1,0
32745164406,-2,-2,-2,-17,-4,-1,2,0
32745165096,-1,0,-5,2,0,0,-2,0
32745165096,2,-9,-3,-22,5,1,-1,0
32745186753,-3,1,-1,-3,-4,-3,-1,-1
32745186753,-1,-2,-1,7,-1,0,-1,-2
32745187645,-1,5,5,5,0,-1,-1,-2
32745187645,-3,-6,-25,-7,4,1,0,-2
32745209974,2,4,24,-13,-2,0,0,-2
32745209974,-1,-3,1,17,0,-1,-2,1
32745210767,-1,3,2,6,2,1,-1,0
32745210767,0,2,-4,-22,0,-2,0,0
32745224483,1,1,1,20,5,2,-1,0
32745224483,0,-4,-9,-14,-4,-2,-1,-1
32745225028,-1,1,4,6,1,-1,0,0
32745225028,-1,1,-6,-16,2,1,3,-1
32745246722,2,4,-2,3,-3,2,-1,-2
32745246722,-2,-3,5,15,5,1,-1,0
32745247543,2,-1,4,-11,-3,-2,0,1
32745247543,1,3,-21,-11,0,-2,0,0
32745269938,-2,3,8,12,-3,-4,-2,1
32745269938,-1,1,0,-1,0,0,0,0
32745270706,-1,-5,7,2,-2,-3,-1,-3
32745270706,-2,-3,0,0,-2,-3,-1,1
32745284302,0,-2,-18,-17,0,-1,1,-2
32745284302,1,1,-3,12,0,1,-1,1
32745285100,-1,-1,-3,2,0,2,-2,0
32745285100,-2,0,-3,-19,-2,2,-1,1
32745306512,0,-2,-6,9,0,1,0,0
32745306512,-1,1,5,-15,-1,1,1,0
32745314269,0,0,-15,15,0,0,1,-2
32745314269,0,2,-9,-9,-3,-1,-2,0
32745329897,-1,0,12,-19,-2,-1,-1,0
32745329897,-4,-6,4,9,1,-3,-1,-3
32745330675,-1,-1,9,7,-1,-2,-2,0
32745330675,-3,2,-7,-14,-2,-1,0,2
32745344334,-1,1,-13,-1,-3,0,-2,0
32745344334,1,0,-4,-10,0,1,0,2
32745345142,0,-5,11,2,-1,0,1,1
32745345142,2,0,5,8,1,-2,-1,-1
32745366773,0,-1,5,15,10,-1,1,0
32745366773,-3,-1,-7,-8,1,-3,-2,-1
32745367585,-2,-4,-12,-11,-2,0,0,-2
32745367585,-2,0,9,-5,-2,0,1,-2
32745390012,3,-1,-2,4,-5,0,-1,-1
32745390012,0,4,4,16,-1,-1,-2,-2
32745390795,0,-3,-12,-13,-1,-1,-1,2
32745390795,-1,3,25,20,-6,0,-1,-4
32745404427,-5,-4,-4,-2,-1,-2,-1,0
32745404427,2,2,1,-3,-1,-1,-1,1
32745405101,3,-1,0,-1,-1,0,0,0
32745405101,1,0,1,3,0,1,0,-1
32745426849,0,-3,0,8,-1,0,0,0
32745426849,-1,1,-4,-6,1,1,0,-2
32745427573,1,1,0,-1,1,-1,-1,-2
32745427573,1,-4,-2,-2,0,-2,-1,-1
32745449910,-3,-2,-2,2,-3,-1,-2,-1
32745449910,0,-1,-7,-14,-3,-3,-2,-1
32745450818,0,2,6,-2,-2,-2,-2,0
32745450818,1,2,-16,-18,-1,-1,-2,0
32745472623,-5,0,4,10,6,-2,-1,2
32745472623,-1,-3,3,4,-6,-1,1,1
32745473278,-2,1,5,-3,2,0,0,1
32745473278,1,0,0,-4,-2,0,-1,-2
32745486862,1,0,-6,-2,-4,1,0,-2
32745486862,-1,-1,-1,2,-1,0,-1,-1
32745487739,-2,0,0,3,-3,-1,1,0
32745487739,-2,0,3,4,-1,-1,0,1
32745510119,1,1,-1,-3,-2,-1,0,-2
32745510119,-1,-4,-3,-6,-2,-3,1,0
32745510751,0,3,6,10,5,1,-1,0
32745510751,-4,-7,0,-5,2,-5,-2,-1
32745523770,-1,-6,-8,17,-2,-4,-1,0
32745523770,-1,3,0,-4,-2,0,0,0
32745531904,-2,-4,-4,-2,-2,0,-1,-1
32745531904,2,-1,3,-6,1,1,0,-1
32745546954,1,0,6,2,0,0,1,1
32745546954,-1,-2,-5,5,0,-1,0,-1
32745547565,1,-1,-8,-7,-5,-1,-2,0
32745547565,0,-1,4,7,-1,-1,-1,1
32745570123,0,-1,-2,-11,-3,-1,-2,0
32745570123,1,0,-12,-1,-1,0,-2,2
32745570769,-1,1,8,-5,1,0,-1,-1
32745570769,-3,-4,-4,6,-3,-1,1,-2
32745583563,0,1,-9,-10,0,0,0,0
32745583563,1,1,1,-12,1,-1,0,-1
32745591995,-2,-1,0,4,-1,-2,0,-2
32745591995,2,-1,-2,4,-2,1,1,0
32745606927,0,-1,-1,-5,-2,-1,2,-1
32745606927,-1,-1,1,-1,-4,0,0,-2
32745607550,1,0,-4,11,10,0,0,0
32745607550,0,3,18,2,0,1,-1,0
32745630014,0,-1,-9,-10,2,-1,-1,-3
32745630014,-3,-4,1,3,-2,-3,0,0
32745630703,-3,-4,-6,-10,-6,0,0,-1
32745630703,-1,0,4,1,0,-2,-1,0
32745652660,0,1,4,2,0,0,-1,1
32745652660,-2,-1,-5,2,0,-2,-2,2
32745653309,-2,-1,-2,-8,-4,-3,1,-2
32745653309,0,-1,-5,-1,2,-3,0,0
32745666982,-1,-1,-5,-11,-8,-1,-1,0
32745666982,1,0,6,21,3,1,-1,-2
32745667569,-1,-1,-13,-6,0,-1,-1,-1
32745667569,-1,-4,-9,-15,-6,-1,0,0
32745690156,0,0,2,1,9,0,-1,0
32745690156,0,-1,-1,4,-3,-1,-1,-2
32745690771,1,1,3,4,-4,-2,0,-1
32745690771,-1,-3,-3,-4,0,0,-2,0
32745703774,-1,-2,3,-1,-1,-1,-1,0
32745703774,-1,-2,-2,-5,1,-1,-1,0
32745711949,-2,-1,2,4,0,-2,-1,0
32745711949,-2,-2,-4,-3,0,-1,2,-2
32745726960,-1,1,4,-3,-5,0,2,0
32745726960,3,2,10,8,4,3,-1,-1
32745727601,-1,-1,-10,-6,-2,-1,-1,1
32745727601,-1,0,6,2,-2,0,-1,0
32745749952,0,-2,5,2,-2,1,0,-2
32745749952,0,-4,-7,-14,-4,-1,1,-3
32745750715,1,0,1,1,-1,0,0,1
32745750715,-1,-2,-4,0,0,0,-2,-1
32745763611,1,0,-1,3,0,-2,-2,1
32745763611,-1,0,0,-4,-5,-1,-1,-2
32745771954,-1,-1,-1,2,1,0,-1,0
32745771954,0,3,4,7,-1,1,-1,-1
32745786788,-2,-2,-14,2,-2,-1,1,-1
32745786788,-2,-1,-8,-23,2,-2,1,1
32745787611,-3,-2,14,7,-2,-1,1,-2
32745787611,2,2,-10,-4,2,-2,0,-1
32745810060,1,0,-8,3,0,1,0,-1
32745810060,-1,0,4,1,-3,0,1,2
32745810794,0,0,13,14,1,1,-1,0
32745810794,-2,-1,-6,-17,-2,0,-2,1
32745832543,-2,-2,7,16,-1,-1,-2,0
32745832543,-1,-2,0,-2,-2,2,-2,-2
32745833238,-1,-1,1,-3,4,0,-2,-1
32745833238,0,2,6,9,1,0,0,-2
32745846871,1,0,-5,-10,-1,-1,0,0
32745846871,0,1,3,6,-5,-3,1,1
32745847627,3,1,-10,-4,-3,0,1,0
32745847627,0,-1,4,7,-2,-1,-1,-2
32745870181,0,1,9,-3,-2,-2,0,0
32745870181,-1,-2,-6,-3,-3,-3,0,1
32745870801,0,0,-5,0,-2,0,-1,-1
32745870801,-2,1,-5,-4,0,-1,1,1
32745892615,0,-4,5,2,0,-1,-1,1
32745892615,0,1,5,6,2,1,-1,1
32745893272,1,-3,-5,-12,-2,1,-1,-1
32745893272,-1,-3,-6,16,-6,-2,-1,0
32745906836,1,0,4,-23,-2,-1,-2,-2
32745906836,-4,-4,9,22,2,-2,-3,-1
32745907595,-2,0,-9,-15,-2,-1,0,0
32745907595,-2,0,-3,-9,-1,0,1,-1
32745930120,-2,-5,-4,7,-3,-2,0,-2
32745930120,2,0,-4,-8,1,-1,1,-1
32745931606,-3,2,7,1,0,-2,0,0
32745931606,1,-1,7,7,-1,0,-3,-1
32745952597,1,0,-5,-7,0,-2,-2,-1
32745952597,-1,0,3,1,2,-1,0,-1
32745953326,1,-2,-3,1,-3,-3,0,0
32745953326,0,1,-5,-20,1,0,0,0
32745966979,-3,0,6,25,-3,-2,-1,-2
32745966979,-3,-2,-6,-12,1,-1,-3,-1
32745967625,-1,0,-10,-12,-4,-1,0,-1
32745967625,-2,1,6,10,-1,-3,0,0
32745990124,0,0,0,-6,0,1,-1,0
32745990124,1,2,3,4,-3,0,-1,-2
32745990775,-1,-1,-4,0,0,0,-2,-2
32745990775,-1,-3,0,-1,1,0,2,0
32746012452,-2,-1,-3,-1,3,-1,0,-1
32746012452,0,-1,-2,-1,0,-2,1,0
32746013242,-1,0,2,1,-1,-1,1,-1
32746013242,-1,-3,-1,-1,0,0,-2,-2
32746026782,-1,-2,-4,0,-4,-1,0,-1
32746026782,2,1,0,-6,-1,0,-3,1
32746027532,-3,-2,8,14,5,0,-1,0
32746027532,-2,0,4,-4,-3,-1,1,0
32746050123,-1,1,0,-4,0,0,-3,-1
32746050123,-3,-4,-12,-7,-4,-2,-1,-1
32746050796,0,0,-2,0,-2,-2,-3,-1
32746050796,0,0,-4,2,0,1,-1,2
32746072693,0,-1,0,-10,1,-2,2,-1
32746072693,-2,0,3,1,0,0,1,1
32746074083,1,-2,0,2,-1,0,1,-1
32746074083,2,-1,1,-4,0,-2,1,-2
32746086191,-1,-1,-1,-2,1,1,-1,-1
32746086191,0,1,-1,0,-1,1,-2,0
32746095296,0,-3,-4,-2,-1,1,0,1
32746095296,0,0,-4,2,4,-1,-1,0
32746110150,-2,0,10,7,5,-1,1,1
32746110150,1,1,0,4,0,-1,0,-2
32746111657,-1,-1,-5,-7,-4,-2,-3,-1
32746111657,0,-1,-5,-10,-1,0,-2,-1
32746132608,-2,-4,-6,0,-4,1,-1,-2
32746132608,-1,-1,2,1,2,1,-1,2
32746134196,1,-2,-1,-3,0,-3,-1,0
32746134196,0,-2,4,8,0,1,-1,0
32746146226,-2,-1,-4,-1,-1,-1,1,1
32746146226,-1,-1,-7,-9,-1,0,0,-2
32746155096,0,2,6,-4,-4,-3,-1,-1
32746155096,-2,0,-5,12,-1,0,1,2
32746170113,0,0,5,4,-1,2,2,0
32746170113,1,-1,-13,-14,4,2,-1,0
32746171687,0,0,5,1,2,-1,0,1
32746171687,0,1,7,-3,-2,-1,-2,-1
32746192633,1,-1,-6,-2,-3,-2,-2,0
32746192633,-1,-1,2,5,-5,-1,-2,-2
32746194161,-1,2,-3,3,-1,0,-1,-1
32746194161,2,0,-7,-14,0,-1,-2,-1
32746206981,4,3,18,27,3,1,-1,0
32746206981,-3,-4,-23,-25,-1,-1,1,0
32746213750,-3,-2,0,2,0,0,-1,-2
32746213750,0,0,3,4,-2,0,0,-3
32746230101,-2,0,-4,-8,-2,-1,-1,0
32746230101,0,1,14,21,-1,0,1,0
32746231781,0,-2,-11,-11,9,1,-2,0
32746231781,-4,-2,-10,-13,-4,-1,0,-2
32746252571,-2,-2,-1,1,2,0,0,-1
32746252571,-1,1,1,4,-4,-1,-2,1
32746254308,0,0,3,1,-3,0,0,1
32746254308,2,0,4,12,3,2,-2,0
32746266833,-1,-2,-10,10,1,0,0,-2
32746266833,-1,-2,7,-9,0,-1,-2,-2
32746273762,2,-2,-4,-5,-2,1,0,1
32746273762,0,-1,-1,-5,-3,-1,-1,2
32746290158,0,1,-5,-6,-2,0,-3,0
32746290158,0,0,1,7,0,0,-2,-1
32746291671,0,1,4,13,-1,0,-1,-2
32746291671,-1,-4,-4,-21,2,-1,0,-1
32746312535,1,2,-18,-5,-1,-1,0,1
32746312535,-3,-4,15,14,1,-3,-2,-1
32746314123,-1,2,3,-4,-6,-1,0,0
32746314123,-1,0,5,5,-2,-3,1,-1
32746326380,-2,1,1,-8,1,0,-2,-1
32746326380,2,1,-6,-4,0,-2,0,0
32746335166,-1,-1,1,0,-1,-1,-1,-1
32746335166,0,-1,2,5,-2,1,2,-4
32746350106,1,-3,0,-9,-1,-1,0,0
32746350106,1,2,6,-3,-1,-1,-2,1
32746351748,-4,-6,1,5,-4,-2,0,-2
32746351748,-1,0,-4,-1,5,0,-1,0
32746372485,-1,-2,3,1,-2,-2,0,0
32746372485,0,0,1,4,0,1,0,-1
32746374280,0,0,-1,1,1,1,-1,0
32746374280,-2,-2,-5,-4,-2,-2,0,-2
32746386305,-2,-1,0,-2,-3,-1,0,-1
32746386305,0,1,0,0,2,2,-1,-1
32746395172,0,0,-4,-13,-4,1,-1,0
32746395172,-3,-4,-2,2,-4,1,0,-1
32746410185,1,2,4,10,6,-2,-3,0
32746410185,0,0,8,10,-2,0,1,-1
32746411700,1,-1,-11,-10,0,-2,-1,-1
32746411700,-1,0,2,0,-3,-2,-3,0
32746432479,-1,-4,-7,-12,-2,1,0,-1
32746432479,-2,1,18,20,0,1,-2,-2
32746434089,-1,-1,5,4,0,-4,1,-1
32746434089,0,1,8,6,-1,0,-3,1
32746446154,-3,-2,-13,-12,-1,-2,-1,-2
32746446154,2,0,-6,11,0,0,1,-2
32746455105,0,-1,9,2,2,-1,1,-1
32746455105,-1,4,6,-5,1,-1,0,0
32746469961,1,0,12,12,-1,0,-1,-2
32746469961,-3,-3,-11,-19,-1,-3,-1,1
32746471582,-1,-1,-1,22,-1,-2,-2,-3
