timestamp,emg1,emg2,emg3,emg4,emg5,emg6,emg7,emg8
32796062619,2,0,-25,12,1,0,0,1
32796062619,2,-2,13,-7,1,-1,-2,-2
32796064381,0,1,0,21,-2,0,0,-1
32796064381,-1,-3,0,-20,3,2,-1,1
32796085107,-1,5,3,27,-1,-1,-2,-2
32796085107,-2,-3,-5,-1,-2,-1,-2,-2
32796086687,1,-1,8,-45,-1,-3,-2,-1
32796086687,1,0,5,5,0,1,0,1
32796098772,0,-2,-7,5,0,1,-1,-1
32796098772,-1,1,9,-1,0,-4,-1,1
32796107705,1,-1,15,21,-2,1,2,-1
32796107705,1,2,-6,-9,1,1,0,1
32796122713,0,-6,-27,-8,-7,-1,1,-2
32796122713,-2,-1,0,-1,0,-4,1,-3
32796124400,0,2,6,4,3,-2,-7,-1
32796124400,-1,-1,-1,-10,0,2,2,1
32796145055,0,5,8,-10,-1,-3,2,0
32796145055,-2,-5,-12,-11,-4,-1,-1,-1
32796146675,-2,-3,-3,7,-1,0,-2,-3
32796146675,-1,1,2,-7,-3,-1,0,-1
32796159241,0,1,19,17,4,0,-1,0
32796159241,-1,0,-24,-20,-1,1,-1,1
32796167792,-2,-9,5,5,-2,0,0,-2
32796167792,-2,-3,-4,1,-2,0,0,0
32796182765,2,2,14,8,-2,0,-1,-1
32796182765,1,0,-13,-10,-4,-1,-2,1
32796184229,0,2,-1,-3,-1,-3,-2,1
32796184229,0,0,12,10,1,-2,-1,-2
32796205234,-3,-3,-14,-2,2,-3,-1,-1
32796205234,0,1,9,7,-1,3,0,-2
32796206827,1,0,-12,-7,-1,2,-2,-1
32796206827,0,0,-4,-9,-3,-3,1,-1
32796227584,-3,-4,12,-8,0,-3,0,-1
32796227584,1,4,7,7,0,0,-1,-2
32796229298,-2,-6,-11,3,2,0,2,1
32796229298,2,0,5,7,-1,1,-2,-1
32796242759,1,1,-2,-17,0,2,0,0
32796242759,-2,-4,-10,-3,-1,-2,1,-1
32796244402,-3,1,16,7,1,1,2,-1
32796244402,0,-1,5,5,3,-1,0,0
32796265036,1,0,-6,-8,0,0,-2,2
32796265036,1,3,-2,4,0,1,-2,2
32796266702,0,3,-2,8,-1,-1,3,0
32796266702,0,-1,4,3,0,0,2,1
32796287600,0,-2,-7,-10,0,-1,0,-3
32796287600,-2,-4,5,1,1,-3,1,0
32796289238,1,2,-11,-4,-2,-1,-2,-2
32796289238,-1,-6,-2,-6,-2,-2,-3,-2
32796302539,-2,-4,0,2,1,-1,-2,1
32796302539,-2,-6,-14,-3,0,1,-2,-1
32796304255,-1,3,12,-1,-2,-2,-1,-2
32796304255,1,0,0,4,-1,-3,0,-2
32796325216,2,4,19,8,0,0,1,-1
32796325216,-3,-6,-19,0,2,-2,-2,0
32796326672,-1,-1,16,1,0,-3,2,-1
32796326672,-1,1,-17,-12,-1,-1,-2,1
32796347571,-1,-1,10,10,3,1,1,-2
32796347571,1,-1,-29,-10,0,3,2,1
32796349404,1,-1,1,1,-3,0,-2,-1
32796349404,-2,-1,0,0,-2,-1,-2,-2
32796362761,-2,-2,-8,-5,-4,-2,-2,1
32796362761,0,0,5,5,2,-2,1,-2
32796364438,-1,4,-2,8,0,0,-2,-2
32796364438,-2,-10,-7,-6,-4,-1,-1,0
32796385288,2,4,7,6,-2,2,0,1
32796385288,-2,0,-4,-6,-3,-1,-1,-1
32796386801,1,0,3,6,-4,-3,-1,0
32796386801,-1,2,-6,-8,-1,-1,-1,-1
32796407654,-2,-2,-5,5,0,0,1,0
32796407654,2,0,15,5,-1,-1,0,2
32796409398,-1,-1,17,11,3,-1,-1,-2
32796409398,-1,-6,-60,-29,-2,-2,-1,0
32796422084,-3,-6,-5,-10,-3,-3,-1,-4
32796422084,-2,3,16,17,-6,-4,-2,-3
32796428673,0,1,-26,-31,4,3,5,2
32796428673,2,4,23,21,-1,-1,0,-1
32796445052,-3,1,14,-5,-2,0,-1,-2
32796445052,-3,-11,0,-8,0,2,0,-2
32796446690,-1,-3,-8,4,-1,-2,-1,-1
32796446690,2,2,2,-2,-1,-1,-1,-2
32796467546,0,-2,-19,-8,-3,-2,0,-1
32796467546,1,4,18,3,4,0,-2,-1
32796469239,1,1,-19,0,-5,-1,0,1
32796469239,-1,-2,6,-5,9,1,-1,0
32796481898,-4,-4,-19,14,-3,-5,-2,-2
32796481898,1,5,9,-3,1,-2,-1,1
32796488708,-2,1,-6,9,4,1,-1,1
32796488708,-2,6,16,2,3,0,2,-1
32796505050,0,-3,0,-8,-5,-4,0,0
32796505050,-1,-21,-10,9,4,1,1,-2
32796506736,0,4,-20,3,1,-2,-2,-2
32796506736,-4,-13,-5,-11,-6,-2,-3,-3
32796527567,1,10,36,10,2,0,-1,-2
32796527567,-2,5,6,-7,-5,0,-1,0
32796529239,-2,-6,7,-12,-4,-1,-3,-3
32796529239,1,-6,-19,4,-1,0,-1,1
32796541915,0,5,5,-7,3,1,-1,2
32796541915,-3,-10,-10,6,-3,0,-1,1
32796548716,0,6,51,14,3,0,0,-1
32796548716,1,0,-12,-3,-2,1,1,0
32796565056,0,3,-10,-8,0,0,-1,-1
32796565056,3,9,14,-8,0,0,-2,0
32796566675,-4,9,-23,-6,-7,0,-1,0
32796566675,-4,-24,19,16,-1,0,0,0
32796587542,1,-10,-41,-7,1,4,0,0
32796587542,-4,4,20,-1,-2,-2,-1,-5
32796589225,5,-1,-11,-11,-2,0,0,1
32796589225,-1,10,23,-5,-5,-5,-3,-2
32796601947,-2,-1,-6,5,3,1,0,-1
32796601947,1,3,2,4,5,-1,3,1
32796608700,-2,-8,-7,-10,-2,-2,0,-1
32796608700,1,5,-1,0,-5,0,-3,-1
32796625120,-1,-2,-21,-4,0,-2,-2,-1
32796625120,-4,-7,-17,7,-9,-3,-2,-3
32796626706,-1,-5,19,17,2,-1,0,0
32796626706,3,14,6,-12,0,-1,-1,1
32796647557,-3,-6,-7,10,-8,-2,-2,-2
32796647557,0,1,-6,-10,3,1,1,0
32796649228,-1,-5,-12,-1,0,-2,-1,-1
32796649228,1,0,-1,4,1,0,-1,-2
32796661899,1,10,27,2,7,1,1,2
32796661899,-2,4,-10,-23,-4,-1,0,-1
32796668745,-2,-12,-16,-4,-3,-2,-2,-1
32796668745,-2,0,-14,-11,1,-1,1,-1
32796685050,5,2,37,8,1,1,1,1
32796685050,-1,1,-36,9,4,1,-2,0
32796686662,2,2,17,0,2,1,1,1
32796686662,-3,5,-8,6,0,0,-2,-1
32796706722,-1,-9,-2,-40,-1,0,0,-2
32796706722,2,3,12,25,1,0,0,0
32796715247,-1,1,6,16,-5,-1,-3,-2
32796715247,1,5,1,22,8,0,1,0
32796721949,-3,-2,7,-47,-9,-3,0,-1
32796721949,2,0,-10,38,2,1,0,1
32796728698,2,4,-2,-61,-4,0,1,1
32796728698,-5,-7,9,60,-2,0,1,0
32796745082,-2,-6,-6,-71,-4,-3,1,-2
32796745082,1,0,6,-17,-6,-4,-1,-2
32796746698,-1,-3,-20,-35,1,1,-2,0
32796746698,0,5,10,66,1,0,-2,-1
32796767563,-1,-3,16,1,-2,0,0,-1
32796767563,-2,1,24,19,4,-2,0,2
32796769254,-5,-3,-5,26,-1,-2,0,-3
32796769254,3,-1,-2,-89,-4,-2,-1,-1
32796781243,-1,-2,-13,66,2,1,-2,-1
32796781243,0,1,2,-40,-6,0,-2,0
32796790293,-3,-3,7,11,0,1,-1,-2
32796790293,-2,0,-9,8,1,0,-1,0
32796805152,0,4,5,21,-3,-2,0,-1
32796805152,1,-6,-1,-35,-5,0,0,-2
32796806703,0,2,-11,17,1,-4,-2,1
32796806703,-2,-1,9,-4,2,-1,0,0
32796827596,-2,0,3,5,2,-1,0,1
32796827596,-3,-1,-15,-25,0,-1,-1,-2
32796829240,0,-3,0,0,0,-1,0,-2
32796829240,2,-2,4,-10,-2,0,-2,-3
32796841485,3,7,-28,-5,2,4,0,1
32796841485,-2,-5,58,39,1,-2,1,-1
32796850335,-2,-2,-6,-4,0,-2,-1,-1
32796850335,-2,-5,-13,-48,-2,-1,-1,0
32796865168,-1,0,-9,38,-1,2,-1,0
32796865168,-2,4,-4,-2,0,0,1,1
32796866927,1,2,6,3,0,0,-1,-1
32796866927,-1,-1,4,-17,-4,0,-1,-2
32796887818,-1,0,0,9,3,-2,0,-1
32796887818,-1,-1,-12,-8,-2,0,-1,-1
32796889312,-1,-4,7,-1,1,-2,1,-1
32796889312,-2,-1,25,9,-5,-1,-1,1
32796901449,-2,1,8,-11,0,0,-2,-2
32796901449,0,0,-23,14,-4,-1,-2,-1
32796910319,-1,-6,-3,-11,2,1,0,-1
32796910319,2,1,-5,7,-1,1,2,2
32796925270,-1,-2,0,0,-1,-1,-2,0
32796925270,-2,0,0,-16,1,-2,0,0
32796926905,1,3,5,15,1,2,0,1
32796926905,-1,-1,-9,-12,-3,-3,-1,0
32796947788,0,-1,12,66,8,2,1,0
32796947788,1,2,-14,-52,-6,1,-2,-1
32796949382,-2,1,-12,16,2,-2,-2,-3
32796949382,0,-2,4,-30,0,-1,1,0
32796961420,-3,-2,3,11,-5,-3,0,0
32796961420,-1,0,14,19,3,-1,-1,1
32796970264,-1,1,-12,6,-3,-1,-1,-1
32796970264,0,-1,-16,0,-1,1,-1,-1
32796985279,0,1,5,-10,-1,-1,0,0
32796985279,-1,-4,-8,42,7,2,0,0
32796986790,1,1,-26,-67,0,-1,-1,3
32796986790,-1,-2,24,12,-4,-1,0,-1
32797007574,-1,0,-23,-18,-5,-2,-1,-2
32797007574,-4,-4,-2,-2,0,-3,-1,-2
32797009217,-1,-1,14,28,-4,1,1,-1
32797009217,3,5,-17,44,4,1,-1,-2
32797021214,-1,-6,-6,-55,-4,-2,0,0
32797021214,0,3,5,8,1,1,-1,-1
32797030274,-2,3,28,37,5,0,0,0
32797030274,-1,0,-9,-22,-1,-1,1,0
32797045258,0,0,7,22,-4,0,-2,-1
32797045258,-1,-1,-15,-18,-3,0,-1,-1
32797046900,1,0,12,11,-2,-1,0,-1
32797046900,1,-1,-5,-19,0,0,-2,0
32797067760,-1,-6,-25,-27,1,-1,-1,0
32797067760,0,-1,19,20,-4,-1,1,1
32797069281,0,4,12,3,-4,1,-2,-1
32797069281,-3,-6,-10,-9,-6,-3,-3,-1
32797081465,-1,1,14,-19,-4,0,1,-1
32797081465,-1,-3,-8,1,2,0,-1,1
32797090265,1,-2,10,-2,-4,-3,-1,0
32797090265,-1,4,-6,36,3,2,0,-2
32797105358,-1,2,2,-45,1,2,-2,-2
32797105358,-2,-3,-13,-13,-4,-2,0,-1
32797106945,-3,3,16,61,2,1,-1,0
32797106945,-4,-5,-17,-48,-9,-4,-2,-2
32797127691,7,6,19,40,5,-1,2,1
32797127691,1,1,-14,-7,-4,2,2,-2
32797129443,-1,-3,-1,-27,-3,0,-1,-2
32797129443,-1,3,3,26,2,2,-1,0
32797141462,-3,-4,1,8,-3,-1,-2,-1
32797141462,1,0,5,-13,-1,-2,1,-2
32797150216,-1,-2,-11,-1,-2,-1,0,0
32797150216,-2,-1,6,1,1,-1,2,0
32797165104,-1,-3,-17,-3,-3,-1,-1,-2
32797165104,1,1,20,2,-3,-1,-2,-1
32797166716,-4,-6,-33,-30,-1,-1,-1,-1
32797166716,0,-2,9,13,-3,-1,-2,-3
32797187776,-1,2,8,4,-3,-2,0,0
32797187776,0,-4,-1,0,5,0,0,0
32797189321,2,-5,-2,-9,-1,0,0,-1
32797189321,0,1,4,-1,5,1,-1,0
32797210309,-1,0,-8,8,-2,0,-1,-1
32797210309,0,1,12,0,0,-2,0,-2
32797211873,1,3,-38,-57,-4,-1,0,1
32797211873,-6,-8,12,34,2,-3,0,-1
32797225250,-5,-4,-13,11,2,-1,-1,-1
32797225250,1,3,0,14,-2,-1,-1,-1
32797226743,3,5,25,-43,1,-1,1,1
32797226743,2,1,-8,-15,-3,1,0,-2
32797247803,-1,-2,-8,-3,-2,0,-1,0
32797247803,-3,0,-4,-16,4,1,0,2
32797249260,-1,0,6,23,0,-2,-2,-1
32797249260,1,3,-4,-12,0,0,0,1
32797270246,1,0,12,7,0,-2,-1,1
32797270246,0,-2,-13,6,-1,-1,-1,-1
32797271903,-2,-2,7,11,-2,-4,0,0
32797271903,-1,0,-8,-8,-1,-2,-1,0
32797285179,1,5,3,0,0,-1,0,0
32797285179,0,-8,17,4,2,1,0,-2
32797286890,-2,8,-4,84,0,-3,-2,-2
32797286890,-1,-6,-3,-53,-6,-1,-2,-2
32797307627,0,-5,-8,-9,-4,0,1,-1
32797307627,-2,2,-5,-15,-1,-1,0,-2
32797309396,-2,-6,17,-14,2,1,1,-1
32797309396,-1,0,7,37,1,0,0,3
32797330312,2,4,-1,-9,0,1,0,-1
32797330312,0,0,-10,-15,-5,-2,-2,1
32797331955,0,-3,3,14,0,1,-2,-1
32797331955,-1,3,-10,-17,-2,-1,-2,-1
32797344619,0,-5,-5,18,6,-1,0,-2
32797344619,-4,-1,22,8,-4,-2,-2,-1
32797351357,-1,-1,3,-9,1,-2,0,-2
32797351357,1,3,3,2,0,-1,0,-1
32797367797,-1,-2,1,-8,-1,-1,-1,1
32797367797,2,2,-10,63,1,2,0,0
32797369268,0,-2,14,-104,-2,3,0,-1
32797369268,-3,-2,-10,28,-11,-2,0,0
32797390280,-1,3,0,26,13,-1,-1,0
32797390280,-2,-4,-2,50,-1,-3,-2,-1
32797391809,-2,-5,18,-42,-3,-1,-1,-2
32797391809,-2,2,-39,-8,-2,-1,-2,0
32797404802,-1,1,14,-2,-6,-3,-1,-2
32797404802,-2,2,-26,-58,-2,-1,-2,0
32797411359,-2,-7,-11,63,-1,-1,-2,-1
32797411359,2,-1,12,-33,-2,1,-1,-2
32797427774,-2,-6,-7,17,-1,-1,1,-1
32797427774,2,5,4,-17,1,-2,-2,1
32797429341,-2,1,-9,6,-1,-1,0,0
32797429341,2,3,10,27,0,0,-1,-1
32797450289,-3,-4,0,-12,-5,-1,-2,0
32797450289,1,2,7,-16,1,-3,-3,1
32797451925,1,-7,-23,26,0,1,1,1
32797451925,0,3,17,4,2,0,-1,-1
32797464596,-2,1,10,-16,-3,3,0,-3
32797464596,1,3,0,10,-2,-3,3,-1
32797471443,-5,-2,-17,-14,-3,-5,-4,-1
32797471443,2,-7,10,7,2,2,1,1
32797487746,-1,6,1,9,-2,-1,1,-1
32797487746,0,17,-5,-18,-2,1,2,-2
32797489417,-2,-16,2,14,2,2,1,0
32797489417,-1,-9,-8,-11,5,0,-2,1
32797510333,3,-2,2,-6,-4,-2,-1,1
32797510333,1,-3,9,-8,-3,2,-1,-1
32797511813,-1,10,-26,5,3,1,1,1
32797511813,-4,1,27,24,-2,-2,-1,-4
32797524600,2,0,-9,-8,1,1,-1,0
32797524600,-2,-8,1,-13,-3,0,2,0
32797531445,1,5,30,10,-4,-3,0,0
32797531445,-1,-5,-43,-17,0,0,0,-3
32797548253,-3,0,4,20,-2,-2,-2,-1
32797548253,1,11,23,3,7,0,-1,-2
32797549801,-1,-12,1,-1,-1,-2,-1,-1
32797549801,-1,16,5,6,-2,-1,-1,-1
32797570378,-1,-14,14,-18,-3,-1,1,1
32797570378,-1,-3,-34,4,3,1,-2,0
32797571971,-8,-9,13,3,-6,0,-2,0
32797571971,0,0,-27,-13,1,-4,-3,-1
32797584647,1,1,-10,-11,0,1,1,0
32797584647,-3,0,4,4,0,-1,-1,0
32797591508,-2,-5,-12,-3,-3,-2,-2,-3
32797591508,1,3,26,6,-1,0,2,0
32797607666,-2,4,-12,1,-2,-2,-2,0
32797607666,0,0,4,-6,-2,0,-1,0
32797609268,1,-15,-32,-2,-3,1,1,1
32797609268,-2,-1,7,10,2,0,-1,-1
32797630262,0,-8,-13,-9,-2,-1,-2,-3
32797630262,2,-2,-3,2,-2,-2,1,0
32797631864,2,5,12,-13,0,-1,-2,-1
32797631864,1,2,14,15,2,2,-1,-1
32797644583,-4,4,22,4,-1,-1,0,-1
32797644583,-4,-10,-37,-15,-6,-1,-3,-1
32797651421,3,13,10,-1,2,-1,1,2
32797651421,0,2,-2,-9,-6,-1,-1,0
32797667778,0,1,12,16,11,1,1,0
32797667778,-4,-10,2,-11,-2,1,1,-1
32797669394,5,11,13,14,3,-1,-1,-3
32797669394,-5,0,9,-5,-6,-2,0,-1
32797690175,-1,4,-6,-13,-6,-3,-2,-3
32797690175,-2,-8,-30,-8,-7,-3,0,1
32797691790,3,-3,15,-2,2,1,0,0
32797691790,1,17,-20,11,1,-2,-2,0
32797703808,-1,-12,-1,-11,-2,-2,-2,-2
32797703808,0,2,-4,13,4,0,0,-1
32797712824,0,12,30,8,2,1,0,-2
32797712824,-2,-6,-3,-8,-1,1,0,-2
32797727779,1,1,-26,22,-3,0,-1,0
32797727779,1,-2,13,31,2,-1,-1,-1
32797729498,-3,0,-10,1,-1,1,-1,-1
32797729498,1,-5,-7,-57,-1,-1,0,1
32797750315,2,0,-5,-19,2,1,1,-2
32797750315,-1,-4,14,12,-1,-1,0,1
32797751818,-1,2,-12,79,4,0,-1,-1
32797751818,-1,-2,13,-30,-7,-3,-1,-1
32797764000,-2,3,2,-16,-1,3,1,-1
32797764000,0,-4,3,-12,1,3,1,0
32797772782,2,4,-7,-18,-1,-4,0,1
32797772782,6,-6,0,21,1,-5,-1,0
32797787746,6,-3,-8,16,1,-1,2,1
32797787746,-4,11,32,29,-2,-3,-7,-3
32797789278,-2,-8,-35,-42,-4,3,-2,-2
32797789278,0,-12,19,16,1,-6,3,2
32797810315,-3,6,20,23,2,0,3,0
32797810315,0,1,-27,14,0,-4,3,-2
32797811942,2,6,4,-31,0,5,20,1
32797811942,-4,2,-8,-37,-3,11,-6,0
32797824374,-3,-5,3,-22,-1,3,0,1
32797824374,0,-5,5,-19,-3,0,-4,1
32797832849,-4,3,5,53,-3,-7,-2,-3
32797832849,0,5,-1,12,1,-3,2,-1
32797847110,-7,-2,17,-8,-3,0,0,0
32797847110,3,-6,-34,-19,-1,-3,0,1
32797847751,-1,-2,10,-13,-2,-1,-7,0
32797847751,0,6,4,3,2,2,1,-1
32797869516,0,-15,-9,7,-3,-5,-8,-1
32797869516,1,-5,-5,-5,2,1,3,2
32797870322,-2,7,32,-11,-3,1,-4,-1
32797870322,-1,-6,-22,9,3,1,-1,0
32797892099,3,7,-8,-6,-7,-4,-1,-3
32797892099,-3,-4,21,-3,13,5,2,1
32797892751,1,11,-16,-2,-2,1,-3,-1
32797892751,2,-17,-3,11,-1,-4,1,-3
32797907101,-2,-1,1,2,-4,1,-2,-2
32797907101,0,5,4,-18,-3,0,-2,-2
32797907772,-4,-9,-13,-6,2,-5,-7,-1
32797907772,-2,1,5,12,6,1,-1,0
32797929671,-3,-6,-1,-18,-7,-4,-2,-2
32797929671,0,10,8,3,1,2,3,1
32797930301,-5,-14,12,-7,-1,-3,-1,-1
32797930301,0,5,-10,6,-7,-4,0,-1
32797952857,3,10,14,7,13,2,0,1
32797952857,0,3,-26,-12,-5,-2,-2,-1
32797953467,-4,-10,-4,15,-3,0,0,0
32797953467,2,4,-3,1,3,3,-1,0
32797967077,-5,0,9,11,-3,0,-2,-1
32797967077,-2,-1,-3,-22,-1,-3,-3,-3
32797967835,-2,7,20,6,6,1,1,0
32797967835,0,8,-21,-10,-5,-2,-1,-1
32797989515,3,-10,6,22,-1,0,1,1
32797989515,-2,-3,5,8,1,0,-1,-2
32797990334,2,-17,-22,-10,-5,-1,-3,-1
32797990334,-3,-2,38,5,-1,-2,-1,-1
32798012702,1,5,-32,-16,-1,1,-2,2
32798012702,1,1,25,5,-6,-1,1,1
32798013422,0,4,-5,-8,-4,-2,-2,-1
32798013422,-1,0,1,-1,2,0,-2,1
32798026981,2,-2,-1,-11,1,-1,0,0
32798026981,-2,-3,-3,26,1,0,0,2
32798027798,2,7,6,-13,0,-3,1,1
32798027798,-2,-6,-7,-47,1,1,0,-2
32798049535,-2,0,-14,53,1,0,1,0
32798049535,8,0,10,32,-5,0,-3,-1
32798050314,-12,-5,-13,-64,-6,-2,0,1
32798050314,-3,1,4,-14,-3,2,-4,-1
32798072822,-4,-2,-14,-74,-3,-14,-2,0
32798072822,2,4,10,85,1,13,3,-2
32798073497,2,-1,0,-11,-4,-8,-4,-1
32798073497,3,-4,1,57,1,8,7,3
32798087076,1,5,1,43,7,10,7,-2
32798087076,-7,-9,-14,-103,-5,-11,-21,1
32798087777,6,6,10,9,-2,14,-4,1
32798087777,-7,-5,-5,3,1,-2,-3,0
32798109477,9,4,13,22,2,-3,-4,0
32798109477,-16,4,13,22,1,4,6,4
32798110310,0,-11,-22,4,4,-2,0,1
32798110310,0,0,6,-11,-3,-6,-6,-1
32798132812,-3,5,-8,-1,-2,4,-1,-2
32798132812,5,0,-10,-38,-6,-6,2,-3
32798133466,-4,5,37,18,-1,-1,-1,-3
32798133466,-1,-9,3,36,0,-1,4,-1
32798147281,-2,4,3,-20,-1,0,-4,-2
32798147281,-2,2,-11,-17,-1,-4,2,-3
32798147805,5,-3,-22,4,-3,-3,0,-2
32798147805,8,8,5,11,4,4,3,0
32798169653,-6,-16,9,-5,-2,-2,-4,-1
32798169653,4,-2,13,1,-1,-3,0,0
32798170292,2,26,-20,9,6,1,0,0
32798170292,-10,-41,12,-20,-6,-7,-3,-1
32798192868,2,13,-28,-17,-2,-1,-1,0
32798192868,-4,-15,28,25,2,0,3,-2
32798193499,1,-4,-28,3,-3,1,0,-1
32798193499,-2,15,49,-2,1,-3,-1,-2
32798207040,0,-3,-13,-5,-3,-2,4,1
32798207040,5,10,-3,-5,1,-3,-2,-2
32798207783,1,-28,-36,-7,4,0,3,-1
32798207783,-4,7,-4,1,-4,-2,-2,-1
32798229546,-4,-16,4,-2,-1,-1,-2,1
32798229546,8,3,-4,-2,5,1,-1,-1
32798230363,-1,16,24,-10,-5,-2,-2,-2
32798230363,2,0,-34,2,4,2,1,-3
32798252680,-9,-4,25,9,-2,-1,0,-1
32798252680,-3,-1,-26,-12,-4,-1,0,-2
32798253452,0,0,23,-4,-5,-1,0,-2
32798253452,-1,3,-19,-3,1,-1,-2,-2
32798267115,3,10,17,3,-1,1,-1,-2
32798267115,-1,-8,3,0,-2,0,0,-1
32798267813,-1,-1,-15,6,0,-2,1,1
32798267813,3,6,-25,-21,-1,-2,-1,1
32798289626,-1,3,51,12,2,1,-3,-1
32798289626,-7,-10,-23,8,-2,-1,1,1
32798290331,-4,-2,5,15,0,-1,-2,-1
32798290331,-2,0,-32,-10,-2,2,-1,1
32798312854,3,4,-12,-6,-3,-1,2,0
32798312854,-2,2,-6,10,-1,-2,-1,-2
32798313468,-1,7,19,-17,-7,-3,0,0
32798313468,-2,-7,7,13,3,-1,1,-1
32798326979,2,6,-23,-18,2,1,1,0
32798326979,-2,-15,-10,-23,-6,0,0,-2
32798327775,3,0,-22,-1,0,1,-1,2
32798327775,2,9,18,27,-1,-2,-2,1
32798349650,-7,4,11,-14,-1,-4,-1,-2
32798349650,-1,-11,6,10,2,-2,-1,-1
32798350346,2,2,9,-8,-3,0,0,-1
32798350346,2,-4,-1,1,-2,1,0,-1
32798380459,0,3,-24,4,-1,1,-1,1
32798380459,-2,7,15,-10,1,2,-3,1
32798381046,-2,-11,9,9,2,0,0,-2
32798381046,-1,9,-14,-2,-7,-2,-2,-2
32798387216,-2,-21,4,2,-6,-3,-3,-1
32798387216,2,10,18,1,-2,1,1,0
32798387822,-2,0,-29,0,-1,-1,-2,-1
32798387822,-4,-7,8,3,2,-1,0,-2
32798409532,0,-3,-37,-14,2,2,1,-1
32798409532,0,-1,8,9,-1,-2,-1,0
32798410320,1,3,26,4,4,1,2,0
32798410320,-2,-2,-24,-9,-7,-2,-2,-1
32798432859,1,6,-3,8,-1,-2,-3,-2
32798432859,-4,-1,0,-14,3,-1,0,1
32798433501,4,1,-12,17,-1,-2,-3,-1
32798433501,-1,4,6,-6,-2,0,0,1
32798447144,2,-5,2,3,-2,2,2,2
32798447144,0,0,-6,2,3,-1,1,-2
32798447795,-3,-1,-7,-14,-1,-2,0,0
32798447795,2,-3,8,5,0,0,0,2
32798469513,-1,10,12,18,0,0,-1,-2
32798469513,-1,-13,2,-8,-3,-2,-1,-1
32798470250,-4,-11,-1,0,-1,-1,-1,-1
32798470250,2,4,4,-3,0,-1,1,0
32798492824,0,-6,-3,-3,0,0,1,1
32798492824,1,9,16,0,-4,-1,0,-1
32798493508,0,1,-13,-23,-2,-1,0,-1
32798493508,-8,-8,5,8,0,-2,-4,-4
32798507113,-1,-22,-11,0,-2,-2,0,-2
32798507113,6,14,25,6,3,1,0,-2
32798507797,1,0,15,6,-1,-1,1,0
32798507797,4,10,-7,-7,1,0,1,-1
32798529657,-1,-3,-14,-15,-2,-2,0,-2
32798529657,-4,2,13,20,-2,0,-1,-1
32798530347,-3,-11,-53,-17,7,1,1,0
32798530347,-1,0,9,3,-4,0,-1,-1
32798552834,2,1,9,-4,-3,-2,-1,1
32798552834,1,7,-14,-4,-3,1,1,3
32798553561,-1,-3,14,12,0,-1,-2,0
32798553561,-2,-8,-8,-2,1,0,0,1
32798567117,0,5,6,3,3,-1,0,1
32798567117,1,-3,-6,-5,-3,1,0,-1
32798567799,-3,-7,8,-3,1,2,-1,0
32798567799,-2,6,-22,-28,-3,-2,-3,-1
32798589632,-2,-8,36,16,-3,-3,-1,-1
32798589632,-6,-7,-55,-18,1,-2,-3,0
32798590302,4,3,42,35,-5,-2,-2,2
32798590302,3,0,15,-12,1,1,1,2
32798612923,-2,7,0,1,5,0,-2,11
32798612923,-3,-13,-35,-18,-3,-1,1,9
32798613479,-1,21,21,15,1,1,-1,5
32798613479,-1,-22,-8,4,-1,0,0,-2
32798627122,3,3,-8,-7,-3,-1,-2,-8
32798627122,2,4,30,3,1,0,-1,-7
32798627876,-5,-7,-33,-10,-5,-1,1,-6
32798627876,3,7,17,10,0,0,1,-4
32798649697,-2,-1,-9,-14,-1,0,1,-3
32798649697,2,8,14,24,1,0,-1,-2
32798650326,-2,-6,-26,-33,-3,-1,-1,-5
32798650326,-2,4,4,6,0,-3,-1,-3
32798672770,1,-7,-21,6,-1,-1,-2,-5
32798672770,0,19,39,6,0,0,-1,-3
32798673438,0,-17,-18,-8,-2,-1,0,-1
32798673438,1,11,13,28,7,0,0,0
32798695134,-1,2,-1,-21,-1,-1,0,-1
32798695134,1,-3,-14,-5,-1,-2,-1,0
32798695758,1,5,17,6,0,0,1,-1
32798695758,-1,6,-4,-2,-3,-1,-2,1
32798709546,-6,-17,-14,2,-3,-3,-2,-4
32798709546,4,-7,-17,-9,-5,0,-3,-3
32798710347,4,11,6,9,0,0,-2,1
32798710347,-6,-11,-10,-17,-6,-2,-1,-2
32798732848,0,7,16,11,1,2,0,2
32798732848,0,-8,-29,-17,-6,-1,-1,-1
32798733515,0,3,3,11,3,0,-1,-2
32798733515,2,14,19,5,0,1,-1,1
32798746436,-2,-3,-12,-15,-1,-3,-1,-1
32798746436,-5,-6,5,-1,-3,-2,-1,-1
32798754650,5,-1,-14,-19,1,0,1,2
32798754650,3,0,2,31,0,-3,0,0
32798769679,-2,2,-2,0,1,0,-2,-1
32798769679,-3,-3,26,6,-2,-3,-1,0
32798770337,-5,2,-20,-12,-2,-3,1,-1
32798770337,-1,-7,8,-19,-3,0,0,0
32798792854,2,0,-38,5,-4,0,-1,0
32798792854,0,15,11,23,3,1,0,0
32798793475,-5,-18,13,0,-1,-1,-3,-1
32798793475,-1,-18,4,-7,0,-2,-3,-1
32798806511,1,2,4,8,-1,-1,1,0
32798806511,-1,2,-14,-12,-2,-1,-2,0
32798814686,0,3,3,7,-1,0,-2,-2
32798814686,2,6,-13,2,-4,0,0,1
32798829738,5,6,26,2,-1,0,-1,-1
32798829738,-1,-10,-22,-5,4,0,0,-1
32798830300,2,14,21,-7,-2,-1,1,0
32798830300,-4,-17,-9,11,-3,-3,-1,-3
32798852876,-2,3,-2,-12,0,-2,1,1
32798852876,0,-3,-6,-26,-3,-2,-2,-1
32798853533,-4,-3,10,79,3,-2,-1,1
32798853533,-1,-1,-32,-70,-1,1,1,-1
32798866482,-3,0,-1,-56,3,-1,0,-1
32798866482,-1,-8,-12,53,0,-1,-1,-2
32798874734,-2,-4,11,-18,-2,-1,0,-1
32798874734,3,7,4,2,-6,-2,1,1
32798889744,-1,3,4,11,0,0,-2,-1
32798889744,1,-3,-6,-51,1,1,1,-1
32798890350,0,2,-17,62,2,1,0,2
32798890350,-1,0,4,-18,-3,-2,-1,0
32798912847,-1,-4,-1,-33,-1,1,-1,-1
32798912847,1,-2,3,36,2,1,0,1
32798913494,-1,-2,-2,-40,-3,-1,-1,-2
32798913494,0,-1,0,17,3,-1,0,0
32798935457,-1,3,11,12,-2,-2,-1,-1
32798935457,-1,2,3,16,1,0,-1,-1
32798936025,2,8,-1,-20,-1,-4,0,-1
32798936025,-13,-6,4,3,2,2,-2,3
32798950095,-4,-4,-32,30,3,-1,-2,0
32798950095,-2,-4,27,-20,1,1,1,0
32798957229,0,2,-14,-38,-5,1,3,-1
32798957229,3,10,13,3,0,2,1,-1
32798972855,-2,-9,-1,24,-2,-1,1,-1
32798972855,-4,-18,-11,-2,0,-8,-3,-2
32798973536,1,3,11,-10,-4,1,0,0
32798973536,5,2,-7,-4,-1,0,-1,-2
32798986528,-5,2,8,23,1,1,2,1
32798986528,10,11,-17,-9,-1,-3,-2,1
32798994672,-5,-17,-15,-5,1,1,-1,-1
32798994672,7,14,8,19,0,-1,-2,-1
32799009570,1,-4,-33,-15,-2,-3,-2,-1
32799009570,-5,1,40,-5,3,1,0,0
32799011226,2,10,20,4,-1,-2,-2,0
32799011226,-2,-13,-44,3,-1,2,1,-1
32799032721,1,11,15,-2,-3,0,0,-2
32799032721,-1,-22,-34,-10,-5,1,1,-1
32799033549,1,2,16,-4,3,2,1,1
32799033549,2,8,1,1,-2,-3,-2,1
32799046535,-6,3,38,27,0,-1,-4,0
32799046535,-5,7,-21,-23,-6,-1,-1,-2
32799054738,0,-11,-9,-9,-3,-1,-2,-2
32799054738,0,-2,18,-12,-3,0,-1,-3
32799069584,0,3,-10,5,3,0,0,1
32799069584,0,14,22,29,4,0,1,-1
32799070373,-1,-8,-22,-10,2,-2,-6,-1
32799070373,-2,-1,-11,2,-1,-2,-1,-1
32799092788,2,-4,13,-14,-4,-1,-2,-2
32799092788,-1,3,10,12,0,-1,0,0
32799093522,-1,-1,-2,3,-1,-1,0,0
32799093522,1,-7,20,10,0,0,-1,0
32799115308,-1,-3,-9,-14,-1,-3,0,-1
32799115308,1,3,-9,-8,-2,-1,1,0
32799115998,-3,-1,0,16,-2,0,-2,-1
32799115998,-2,-7,4,-17,-3,0,-1,-1
32799129714,2,3,8,26,8,1,-1,1
32799129714,-1,-2,-21,-71,-8,-1,-1,0
32799130355,-1,5,10,8,-2,1,1,-1
32799130355,-4,1,-6,8,3,0,0,-2
32799152934,8,5,2,-7,-5,-2,0,1
32799152934,-5,-5,-1,44,1,-1,0,-2
32799153533,1,3,4,20,2,-1,-1,0
32799153533,-4,-4,-7,-17,-2,1,-1,1
32799175439,-2,-1,-4,-17,-4,0,2,-1
32799175439,2,5,-10,12,0,0,-2,0
32799176017,-1,4,17,0,0,-1,0,0
32799176017,-4,-10,-14,20,4,-4,-2,-1
32799189724,4,-2,10,-22,-2,-1,0,-1
32799189724,-1,2,17,-3,-3,-2,-1,-2
32799190384,-2,-5,2,0,8,4,1,-2
32799190384,2,7,-13,-8,2,-1,-2,-1
32799212816,-3,-2,9,5,-5,-1,-2,-1
32799212816,0,-5,-25,4,2,0,0,1
32799213634,1,4,7,-9,-5,-1,-1,0
32799213634,0,1,-4,-6,1,-1,-1,1
32799235312,-2,-4,-16,18,0,0,-1,-1
32799235312,1,2,14,-11,1,0,1,1
32799236024,0,1,-10,8,-5,-2,-1,-1
32799236024,1,-1,-4,-28,0,1,2,1
32799249742,-3,-6,16,31,-4,-4,-1,-2
32799249742,-2,-1,5,-21,7,0,-1,0
32799250377,-2,-5,1,35,0,-2,-1,-1
32799250377,2,0,-6,-43,-10,-3,3,1
32799272812,-1,7,16,28,11,0,-1,-1
32799272812,1,1,19,1,-1,1,2,-1
32799273526,1,-3,-24,15,-7,-2,-2,-1
32799273526,-1,-6,9,4,1,0,0,-2
32799295455,-1,3,-21,-30,-7,-1,1,1
32799295455,-3,-3,-10,17,0,0,-1,0
32799296048,0,-5,-14,-38,1,0,-2,-2
32799296048,8,15,6,22,-1,1,-1,-1
32799309720,-8,-11,0,-7,4,1,1,-1
32799309720,3,3,1,1,0,-2,0,1
32799310315,-2,1,-2,-7,-2,-1,0,2
32799310315,-3,-7,1,-21,-2,-1,-1,0
32799332856,2,2,-15,17,0,1,-1,1
32799332856,-1,-5,5,-13,-4,1,-1,-1
32799333547,0,10,10,-20,6,1,1,-1
32799333547,-2,-15,13,0,-1,-2,-2,-1
32799355492,0,-10,-20,-11,0,1,0,0
32799355492,-1,3,-1,32,-1,-2,-2,1
32799356069,0,-2,0,-106,-12,-3,-2,-1
32799356069,-3,2,-1,74,4,-3,-5,-1
32799369713,-1,1,0,-20,0,0,0,-1
32799369713,-2,-5,-12,48,8,1,-2,-3
32799370337,0,-4,-9,-53,-11,-5,-2,1
32799370337,4,2,34,10,0,-1,2,5
32799392965,3,-3,-25,-18,-3,-2,-1,0
32799392965,-2,0,5,15,2,-1,4,-1
32799393531,-4,0,-1,29,4,4,-2,-2
32799393531,-3,-1,-6,-17,-4,-2,-1,-1
32799415453,4,4,14,12,4,0,-3,1
32799415453,3,8,-4,-17,-2,-3,-3,-1
32799417026,-4,0,-20,4,0,-4,1,12
32799417026,-6,-16,13,9,-3,0,7,-25
32799429228,3,-4,9,15,-2,-3,-2,-1
32799429228,1,-5,-11,-36,-5,-4,-2,2
32799437937,-7,1,8,34,-1,12,-2,-1
32799437937,1,9,-30,-10,3,0,-4,7
32799452853,0,2,0,-17,-1,3,4,0
32799452853,-4,0,-12,-28,-6,-3,-4,-5
32799454468,4,3,26,49,2,-3,1,-1
32799454468,-2,-2,-3,9,-1,-1,-2,3
32799475423,0,-4,-6,-18,-2,0,0,-2
32799475423,2,-2,14,5,-1,1,0,3
32799476925,1,5,-15,2,2,-3,-1,-3
32799476925,-3,-5,2,-8,-2,2,2,2
32799489093,-5,-5,-17,-4,-2,-4,-4,-1
32799489093,-1,-2,-8,40,1,1,-1,-1
32799497923,2,5,24,-6,1,-1,2,-2
32799497923,-6,-6,-44,-49,-4,-4,-2,-1
32799512773,1,13,41,103,3,-2,1,0
32799512773,-5,-5,-9,-100,-3,1,-1,0
32799514379,0,-10,0,16,-4,-3,0,-4
32799514379,3,8,13,-15,-5,-3,-2,4
32799535247,-6,-10,-10,-3,-1,2,-1,0
32799535247,0,6,25,55,1,1,0,-2
32799536900,-2,-6,-8,-78,-1,-2,-3,-2
32799536900,-2,5,20,49,0,0,0,-1
32799548943,2,4,0,-34,0,0,-1,-2
32799548943,-1,2,1,-2,-1,-3,0,-1
32799557846,-2,-12,9,20,1,-2,-2,-2
32799557846,1,-5,-35,2,-1,0,-3,-1
32799572669,-5,2,3,2,2,-1,-2,1
32799572669,2,10,18,35,-6,-1,1,1
32799574319,-2,-17,-16,-1,-1,-1,-2,-1
32799574319,2,11,35,26,5,2,-1,1
32799596207,-2,-14,-14,-29,-4,-5,-1,-2
32799596207,0,-6,-15,-17,-2,-1,1,0
32799596864,3,11,1,19,-1,-1,2,-1
32799596864,0,-1,8,4,-2,-1,-1,0
32799608911,-3,-3,-10,-22,-3,0,0,1
32799608911,2,8,-44,-8,4,0,-1,2
32799617916,0,-10,47,-2,-7,-8,-2,-2
32799617916,3,1,-2,8,9,-1,2,0
32799632782,2,10,5,15,-5,-2,0,0
32799632782,-3,-4,-12,-10,-1,2,0,1
32799634392,1,3,-13,12,3,5,-1,4
32799634392,-1,-4,-6,-35,-5,-1,-1,0
32799655405,0,1,6,-11,-4,-4,-1,-1
32799655405,-3,-2,12,10,-1,1,0,-5
32799656983,1,-1,-16,-3,3,0,-1,-5
32799656983,-2,0,9,7,-1,0,-2,-2
32799668937,0,-1,-6,4,2,5,-2,-3
32799668937,-1,-6,-2,-35,-1,-2,-1,-3
32799677900,2,3,21,35,4,0,-1,0
32799677900,-3,13,3,4,-7,-1,0,-3
32799692778,-6,-17,14,24,2,-2,-1,-2
32799692778,0,-5,-5,-41,-4,0,0,1
32799694357,0,3,1,-1,3,1,2,1
32799694357,2,3,-6,1,2,2,-2,6
32799715286,1,3,-5,-10,-3,0,-1,3
32799715286,-1,-1,17,13,-3,0,-3,5
32799716868,0,6,-20,-4,-1,-1,1,8
32799716868,-3,-11,-5,-1,2,-1,-1,3
32799728874,-1,-6,-3,-16,-4,-1,3,-1
32799728874,-3,-3,-6,-21,3,0,-3,0
32799737907,6,-1,2,53,-5,-2,-3,0
32799737907,-1,-1,-2,24,0,-2,1,5
32799752775,-2,3,7,-33,-1,-2,-1,4
32799752775,-3,2,-5,5,1,1,2,-1
32799754391,-4,-3,-12,-19,-1,0,2,-6
32799754391,0,-3,6,-4,1,0,1,-8
32799775280,3,7,-25,2,2,2,0,-8
32799775280,-1,-4,36,12,0,2,-2,-7
32799776854,-3,-2,-53,-18,-2,0,-2,-6
32799776854,1,2,10,10,-4,-2,-1,-5
32799789070,-2,4,-4,-23,2,0,-1,-3
32799789070,3,2,-6,25,-2,-4,1,-2
32799797993,-3,14,18,9,-1,-1,-2,-1
32799797993,0,-17,-11,-24,-3,-2,-1,-3
32799812883,2,-5,7,23,0,0,-1,-1
32799812883,-2,-3,25,3,0,-3,-1,-3
32799814489,2,-1,-10,-2,4,0,1,0
32799814489,-1,12,-10,-4,-1,1,2,-1
32799835369,-1,2,-7,-4,-2,1,-1,-1
32799835369,1,-1,-13,8,-2,-2,0,0
32799837063,-3,-3,12,-5,-1,-1,0,1
32799837063,3,2,-7,-7,2,0,-2,1
32799848981,1,3,7,8,-1,-3,-2,1
32799848981,4,9,-1,3,-2,-1,-3,2
32799857918,-10,-6,-20,-23,-4,-1,-2,1
32799857918,5,1,28,23,0,-2,-3,-2
32799872977,-2,-6,4,2,0,0,0,-2
32799872977,2,-13,-8,-5,-3,-1,0,-2
32799874580,-2,-8,-1,-7,-1,2,-1,-5
32799874580,-5,-1,7,-2,-3,-2,-1,-2
32799895481,0,6,7,8,-2,-1,2,0
32799895481,-1,-1,-17,-18,-2,-3,-1,0
32799897110,0,3,12,7,4,-5,-2,0
32799897110,-2,-12,-9,-7,0,-2,-1,2
32799909065,2,4,6,4,-2,-2,0,3
32799909065,-1,0,-2,-2,6,1,0,1
32799917983,-2,-6,3,-4,-5,-5,-2,0
32799917983,-1,1,3,2,-1,0,-2,1
32799932821,0,-1,-7,-3,1,1,0,2
32799932821,-1,-1,-1,3,-5,3,-2,0
32799934396,0,0,8,-2,0,-16,-19,2
32799934396,-1,-4,-31,-28,-4,11,13,-6
32799955432,-3,-3,-5,13,0,-6,3,0
32799955432,4,2,-5,-75,4,14,0,1
32799957008,0,2,6,53,-5,-6,22,-5
32799957008,3,-3,0,17,0,24,-6,-1
32799969090,-18,2,-5,-16,2,-1,-9,-3
32799969090,-4,-1,2,32,-1,0,6,-1
32799977938,-2,4,-9,-91,-2,3,0,0
32799977938,7,-6,1,29,-2,-18,-8,0
32799992851,2,0,-3,-15,-6,3,12,-5
32799992851,6,-1,21,92,3,-3,-11,3
32799994490,3,4,-22,-43,-4,-15,-12,1
32799994490,-11,-2,-1,-31,9,25,-2,2
32800015242,8,-4,6,42,-1,11,-6,-1
32800015242,-9,10,-8,-11,-6,-9,3,-1
32800016865,5,-16,23,-16,3,10,8,1
32800016865,-4,5,-10,13,2,-12,-3,1
32800037804,5,-7,-9,-27,3,-7,1,-1
32800037804,-2,3,7,-16,-1,-1,0,-3
32800039379,-4,5,25,81,0,8,2,-1
32800039379,2,-4,-26,-76,-5,-7,2,-3
32800052834,1,-8,8,68,1,0,-2,-1
32800052834,4,4,-3,-14,5,-5,3,-2
32800054434,-5,-3,-10,13,-1,4,-5,-1
32800054434,-1,-4,28,51,-4,-10,3,0
32800075396,4,8,-25,-84,2,-2,0,1
32800075396,-2,-4,35,65,-2,0,-3,-2
32800077031,4,-1,-6,1,4,3,1,0
32800077031,1,3,-19,-24,-3,-3,-2,-1
32800097930,-1,1,1,2,-5,-3,-1,0
32800097930,-5,0,-12,-1,1,1,-1,1
32800099549,-1,-11,-10,-21,-3,2,0,0
32800099549,-1,-4,9,5,-1,-6,0,-1
32800112874,1,11,4,-13,-6,0,-1,0
32800112874,-2,-13,-14,-28,2,0,2,-1
32800114523,3,10,24,45,-2,2,-1,1
32800114523,-2,3,0,-37,2,-4,-2,0
32800135407,-2,2,8,-3,-3,-4,-1,0
32800135407,1,-2,-7,16,-7,-3,0,0
32800137065,-1,-2,-1,-9,0,1,2,-2
32800137065,-1,-1,5,18,3,1,2,0
32800157925,0,11,21,7,0,0,-1,0
32800157925,1,-7,-29,-29,-1,-3,-1,1
32800159570,-1,3,3,3,2,2,-2,0
32800159570,1,-8,6,-3,0,-3,0,0
32800172048,-3,2,-3,20,2,0,-3,0
32800172048,0,-20,-15,-5,-1,-2,-2,-1
32800180457,-5,0,-11,-31,-3,-3,1,-3
32800180457,-1,5,1,23,-1,-1,-2,-1
32800195438,-2,-3,16,-4,-3,1,-1,0
32800195438,-3,3,-9,-16,-2,-1,-1,-1
32800197071,0,3,5,26,3,2,-1,-1
32800197071,-2,4,12,8,-3,-3,2,-1
32800217958,1,-5,-3,-20,-3,-3,-2,0
32800217958,-4,-3,-4,-3,1,0,0,-3
32800219491,-3,-2,5,6,3,0,0,0
32800219491,-1,1,-24,-12,3,0,-2,2
32800232338,6,4,7,11,4,1,-1,1
32800232338,-1,-4,-2,0,-6,-2,0,-2
32800239027,2,1,5,-12,-4,0,-2,-1
32800239027,2,1,7,10,0,-1,-1,-2
32800256122,0,-2,-13,-1,-1,-2,-1,0
32800256122,0,3,6,-4,3,3,3,0
32800257618,2,-6,-12,-3,2,0,-2,1
32800257618,1,3,3,-6,-4,1,-1,0
32800277772,-7,-8,-15,6,-5,-3,-3,-2
32800277772,-2,5,14,-4,-3,-2,-2,-2
32800279482,4,1,-9,2,-9,-1,0,0
32800279482,-2,-1,0,0,3,0,-2,0
32800292322,-3,-5,2,-7,-1,-1,-1,-1
32800292322,1,7,11,-10,6,0,-3,1
32800299132,0,-4,-7,-10,-3,-2,-1,-1
32800299132,-2,-1,-10,-11,1,-3,0,1
32800314496,-3,-5,11,12,0,-2,-1,-3
32800314496,4,3,-4,21,7,0,-1,-1
32800322979,0,6,-7,-28,-1,1,-2,2
32800322979,-2,-18,-6,17,3,-1,-3,-3
32800338030,3,5,28,33,4,-1,1,-1
32800338030,-2,1,-24,-22,-5,-1,0,0
32800339514,6,-1,-4,-2,4,0,0,-2
32800339514,5,4,6,2,-5,0,-1,-1
32800352288,-1,-7,-12,-17,1,0,1,-1
32800352288,-4,-8,1,23,-7,-3,-2,-2
32800359112,0,4,9,9,2,0,0,-1
32800359112,-4,-6,-13,-2,0,0,-1,-1
32800375401,-2,-3,-2,-14,-4,1,-2,0
32800375401,-4,5,14,6,-6,-1,0,-1
32800376972,-9,-6,-5,-22,-2,-4,0,-3
32800376972,1,8,-7,43,-3,-3,0,0
32800397849,-2,-7,7,-26,-1,1,-1,-1
32800397849,5,6,19,8,1,-3,1,0
32800399497,-6,-6,-22,6,0,-6,-2,0
32800399497,-1,1,27,-6,2,-2,1,1
32800412329,-3,-2,-4,7,0,-1,-1,-1
32800412329,4,2,-2,-3,-1,0,-1,1
32800419111,1,2,8,7,1,2,0,0
32800419111,-1,4,-13,-17,4,2,2,0
32800435480,-1,-6,0,7,-3,-2,-2,-1
32800435480,0,-2,4,-10,-2,0,-2,-1
32800436991,0,7,-2,13,-1,-3,-2,-2
32800436991,-1,-1,20,-7,-8,-4,-1,-2
32800457967,0,10,-14,-6,3,-6,-1,0
32800457967,-7,-28,-7,-3,-1,-5,-2,-1
32800459597,0,1,-3,-4,0,-3,-1,-2
32800459597,0,1,4,14,0,-2,1,0
32800472334,1,-1,-6,-4,0,1,2,-1
32800472334,-2,8,10,-5,0,1,-2,2
32800479070,-1,-5,-27,-11,-2,3,1,2
32800479070,-3,-7,15,-15,0,2,-1,-1
32800495454,3,9,19,33,-3,2,-1,0
32800495454,-8,-1,-21,-14,-3,1,0,-2
32800496950,1,-12,10,12,0,1,-1,-1
32800496950,-1,7,-22,-9,0,1,-1,-1
32800517942,-1,-8,-7,7,1,4,1,0
32800517942,1,13,16,-2,-2,4,-1,-1
32800519589,0,-4,-7,0,-3,-1,-3,-1
32800519589,-1,-2,-13,-7,-3,-2,-1,-1
32800532283,-4,-1,1,-3,1,0,0,0
32800532283,5,-3,-8,11,3,-1,1,0
32800539017,-1,7,12,-3,-2,-1,-1,-3
32800539017,0,-6,-6,-4,0,-2,1,-2
32800555315,-2,-4,-5,-5,0,2,0,0
32800555315,0,-3,-28,-15,-1,-1,3,0
32800557018,-1,-4,10,28,-1,1,3,-2
32800557018,1,5,4,-8,-3,1,1,-1
32800577823,-2,-10,10,-6,-5,-2,2,-1
32800577823,0,-2,-20,-25,7,0,-1,-1
32800579491,1,8,19,30,-1,-1,-1,1
32800579491,0,-5,-11,2,-2,-1,-2,-1
32800600489,1,3,-12,-19,-1,0,-3,0
32800600489,-1,5,8,20,-1,-1,-3,-2
32800601981,-3,-12,-18,-37,1,1,-1,0
32800601981,0,8,23,9,-5,0,-3,-1
32800615383,-1,-2,-24,-22,-1,0,-1,-1
32800615383,-2,-11,-3,23,-3,-4,1,-2
32800616987,2,6,15,5,0,-2,-1,1
32800616987,-2,-4,-9,-11,-1,-2,0,-1
32800638015,2,7,-7,-5,0,-2,0,-1
32800638015,-4,-4,12,6,-3,-1,0,-2
32800639548,-2,-7,-16,-4,-1,1,-1,1
32800639548,2,0,8,-4,-3,-2,-1,1
32800651544,1,0,-8,17,-1,-1,-4,-1
32800651544,-1,7,17,-5,0,-1,-3,1
32800660449,-2,-4,-19,-3,1,1,0,-1
32800660449,-1,2,-4,5,4,3,0,0
32800675435,-1,0,1,-7,-1,0,2,-1
32800675435,0,0,1,-6,-1,0,0,-1
32800676977,0,5,8,0,0,1,-1,0
32800676977,-1,-4,-2,3,1,0,-1,-1
32800697865,-2,-1,-2,-5,3,1,0,-1
32800697865,0,3,2,7,-4,0,0,0
32800699506,-1,2,-3,-16,-2,-4,-1,-1
32800699506,-1,5,-14,9,2,16,2,-1
32800711661,-1,-5,0,13,0,17,-1,-2
32800711661,1,-3,5,2,2,11,0,-1
32800720459,1,1,2,-3,-3,2,-1,0
32800720459,0,-2,1,-3,-1,-9,0,-1
32800735464,1,1,-2,-6,1,-10,0,0
32800735464,0,-3,-1,-4,-6,-3,-1,0
32800736991,-1,0,11,8,-4,-1,-1,0
32800736991,-2,-1,-2,-4,2,-1,-1,-1
32800757965,-4,0,0,1,0,7,-1,0
32800757965,-2,0,2,-5,6,3,-2,-1
32800759514,1,-2,-3,2,0,0,0,0
32800759514,8,-7,6,14,10,-6,-2,1
32800771605,-1,10,0,-15,-5,-17,-2,0
32800771605,-4,-15,9,4,-3,-14,1,0
32800780467,-5,1,-2,-2,4,-11,3,-1
32800780467,-1,-2,-1,-3,-5,-8,-1,1
32800795479,2,0,-1,5,0,-7,-1,0
32800795479,1,4,-8,-6,0,-2,-1,-2
32800797003,0,-1,5,-1,-4,0,-4,-1
32800797003,-4,0,0,-3,-5,0,-2,-1
32800817894,0,-4,-3,-1,3,1,-1,0
32800817894,1,4,-10,-6,2,0,-1,-1
32800819407,1,-2,14,7,-1,2,-1,-1
32800819407,-2,8,10,5,2,1,0,-1
32800831561,-1,-7,0,-2,-2,1,-1,0
32800831561,4,1,-6,6,-1,-2,-1,-1
32800840486,1,4,12,-1,-1,1,0,-1
32800840486,-1,1,-8,12,5,2,0,0
32800855526,-2,-1,-2,-9,-2,-2,-1,-1
32800855526,-2,-1,-8,-2,-2,0,-1,0
32800857030,2,-4,10,-2,-2,0,0,-1
32800857030,-2,2,-15,-7,-3,1,-1,-2
32800877980,-1,-7,13,1,3,0,-1,-1
32800877980,0,3,-11,15,2,-1,-1,1
32800879441,-2,2,3,-2,3,1,-3,-1
32800879441,-1,-1,-24,-17,-1,3,0,0
32800891508,1,-2,19,10,-2,1,0,1
32800891508,0,4,-5,-19,-3,1,0,1
32800900502,-2,-17,8,17,-2,-1,-1,-3
32800900502,-4,-3,6,3,-3,-4,-1,-3
32800915502,3,2,-6,1,6,0,2,-1
32800915502,0,0,-12,-13,-2,0,-1,-1
32800917016,-2,3,-7,2,5,0,0,2
32800917016,-1,-2,14,-23,-4,-2,-2,-1
32800937853,0,15,-3,13,1,-1,-1,-1
32800937853,-5,-24,14,1,-4,0,-1,-2
32800939505,1,8,-44,9,1,1,1,0
32800939505,-1,-7,9,-5,-3,2,-1,-3
32800951653,-1,7,2,-5,-3,2,0,0
32800951653,1,3,19,0,0,1,0,-1
32800960474,-1,-1,6,-29,-2,-1,-1,-2
32800960474,0,6,-14,9,-2,-1,-2,1
32800975482,1,0,-14,44,0,0,-1,-2
32800975482,1,5,22,-6,2,-2,1,-1
32800976998,-1,3,-5,-1,-3,1,1,-1
32800976998,-4,-6,-14,-10,5,1,0,-2
32800998001,3,-5,-6,-18,-7,-2,-2,-2
32800998001,-1,5,13,15,7,0,1,0
32800999517,1,-2,-13,-4,0,-4,-1,0
32800999517,0,0,-8,-3,-4,-5,1,0
32801020244,-5,-5,-3,-2,-4,-4,-2,0
32801020244,-1,0,4,5,2,0,-2,-1
32801021896,2,3,-12,-21,-2,1,1,-1
32801021896,0,-4,27,26,1,1,-3,0
32801035431,-2,4,-1,-10,1,-2,-2,-1
32801035431,-2,-17,-14,-7,-6,-2,-1,-2
32801036942,0,1,7,13,-2,0,-3,2
32801036942,-2,0,-3,-16,-7,-2,-1,-1
32801057852,1,2,0,11,-1,1,2,1
32801057852,0,2,-12,-1,-2,0,-2,1
32801059510,1,3,23,18,8,0,-3,-1
32801059510,-1,-8,-8,-11,4,0,-1,0
32801080421,0,-3,-1,-17,0,-3,0,-1
32801080421,0,5,-10,-1,0,-2,-1,-1
32801081991,0,0,-3,-19,-6,-3,0,0
32801081991,3,5,20,21,0,1,2,1
32801095408,-1,-4,-6,-10,-1,-2,-1,-1
32801095408,-3,1,-1,5,0,1,2,-1
32801096987,-4,-9,-4,-6,-2,0,-1,-2
32801096987,0,-1,5,-6,-10,-4,-1,-2
32801118034,4,1,-7,-1,4,1,-1,0
32801118034,1,3,10,28,-2,1,0,2
32801119533,-2,-1,-10,-8,0,-2,-1,0
32801119533,2,2,2,22,-3,1,-1,1
32801140467,-2,-4,5,-6,-3,0,0,0
32801140467,0,-1,-15,-19,-6,-2,-3,-2
32801141991,1,0,5,-9,1,0,-1,-1
32801141991,-2,-2,-11,9,0,-2,-3,0
32801154856,-1,-2,16,0,1,2,0,0
32801154856,0,-2,-9,-12,1,-2,1,0
32801161559,-3,2,13,12,-1,-2,0,-2
32801161559,-1,-1,-7,-11,6,1,1,-1
32801177994,1,0,-10,-5,2,1,-1,0
32801177994,0,3,10,8,-1,44,1,0
32801179521,0,0,-3,3,1,61,0,-2
32801179521,0,0,-27,-33,0,39,0,-1
32801200448,-5,-5,2,22,4,21,0,0
32801200448,-3,-2,4,-10,-3,-16,0,-2
32801201933,-1,-2,-10,-6,-4,-24,-1,0
32801201933,-1,-5,12,13,0,-18,-2,0
32801214726,-1,8,-6,-14,-6,-29,-2,0
32801214726,-3,-18,-13,-3,-3,-26,-2,-2
32801221645,0,5,19,17,0,-22,0,-1
32801221645,-1,1,-10,-10,-2,-20,0,0
32801238056,0,-3,13,-12,1,-10,1,-3
32801238056,0,2,16,6,1,-10,-3,-1
32801239545,1,-2,-35,-4,-3,-10,-2,-2
32801239545,0,-4,6,32,0,-9,1,0
32801260357,3,2,-5,-23,5,2,0,1
32801260357,0,5,-9,-7,-2,-2,-2,-2
32801262013,-2,-4,13,-5,-2,-9,0,1
32801262013,0,4,4,3,1,-2,-1,-4
32801274714,0,-7,-7,14,-4,3,0,0
32801274714,-1,4,3,-10,-2,1,-1,-1
32801281501,1,-2,-13,-1,-2,-5,-1,-1
32801281501,-1,-2,23,0,-5,-3,-1,-2
32801297959,-3,-5,-8,-5,-2,2,-1,-2
32801297959,0,4,7,7,0,-4,0,1
32801299450,1,-5,-5,9,1,0,1,-3
32801299450,-2,5,16,1,2,3,-1,0
32801320524,-1,-4,-11,-5,-1,-1,0,-2
32801320524,-3,10,-8,1,-5,-2,-4,0
32801322047,0,-13,2,-4,-1,1,-1,-1
32801322047,-1,-3,2,-28,-2,1,-1,1
32801334751,-2,-4,-2,7,-3,-1,-1,-1
32801334751,-1,5,-21,1,6,3,-3,-2
32801341590,-1,1,10,17,-2,1,1,1
32801341590,1,3,11,9,2,1,1,1
32801357999,-2,-4,-10,-34,-6,-1,-1,-1
32801357999,2,-5,9,37,5,1,0,-1
32801359514,-2,3,5,-21,-1,-3,2,0
32801359514,0,1,8,29,-1,-5,-10,-1
32801380424,-1,-4,-21,36,-1,-4,4,-3
32801380424,2,-1,-1,-64,-3,5,7,3
32801381961,1,0,-4,17,2,-3,-6,-3
32801381961,-2,-2,-12,-22,-4,1,25,-2
32801394681,0,1,-2,2,1,5,-9,2
32801394681,2,-1,21,38,0,-4,-8,-1
32801401460,9,5,-11,-33,4,8,12,2
32801401460,-17,-10,-20,6,-2,-15,-17,-6
32801417886,-1,3,8,-29,1,-1,5,-2
32801417886,2,4,-22,32,1,4,3,-1
32801419455,-5,6,42,-2,-4,-4,0,1
32801419455,7,-15,-15,-25,-3,4,2,1
32801440450,-1,3,24,-2,-3,-1,0,-2
32801440450,0,-1,-42,-18,2,-1,-3,1
32801441944,0,2,7,35,3,-4,-3,-2
32801441944,1,5,9,-11,-2,-2,0,1
32801454849,-3,-3,9,26,0,4,3,0
32801454849,1,-7,-5,-23,-4,-2,6,2
32801461627,-3,3,-15,-34,-4,2,-13,-1
32801461627,-3,1,17,73,-3,0,-6,-2
32801478026,4,1,-30,-59,-1,6,-2,2
32801478026,-4,1,-22,3,-4,0,-1,-3
32801479474,-5,-13,3,-6,-10,-2,2,-1
32801479474,4,8,-1,26,0,2,3,1
32801500412,-3,13,15,22,1,-3,-3,0
32801500412,-6,-21,22,15,-5,-2,-2,0
32801501987,-2,-3,-22,-34,3,2,-2,-1
32801501987,2,-3,-5,10,4,0,-1,-1
32801513990,3,11,-2,29,4,1,-1,0
32801513990,-2,-1,15,-15,2,0,-2,1
32801523041,-3,-6,13,12,2,-4,0,-2
32801523041,-1,2,4,-49,-5,2,-2,-1
32801537833,-2,-10,-3,43,1,0,1,-1
32801537833,2,3,-22,-17,4,-1,1,-1
32801539466,0,-2,3,-20,-3,1,0,2
32801539466,0,7,13,-44,1,3,-1,0
32801560475,0,0,10,24,-5,-3,-2,-2
32801560475,-1,2,1,4,-4,-2,0,-1
32801562040,0,6,-2,17,3,-1,-1,-2
32801562040,-2,-6,-57,-26,-3,4,-1,0
32801574199,0,-6,13,-22,-1,-3,-1,-1
32801574199,-2,3,10,13,1,-1,-1,1
32801583017,-2,-2,-2,31,-1,-1,-1,-2
32801583017,-1,-2,-5,-14,1,0,0,-2
32801598030,3,3,-6,-5,-2,-1,0,1
32801598030,-1,-1,15,7,-2,-1,0,-1
32801599513,6,11,-16,13,1,1,1,1
32801599513,-5,-8,-7,10,0,-3,-1,-4
32801620442,-2,-9,-5,-12,-4,-1,-1,-2
32801620442,0,4,-7,-10,7,1,0,-3
32801621974,0,-6,2,12,-2,-2,2,1
32801621974,1,3,-6,4,1,0,-3,0
32801634092,2,7,16,6,1,0,0,1
32801634092,-4,4,-6,-12,-4,-3,0,-2
32801643036,-3,-12,-21,11,-3,1,-3,0
32801643036,2,-4,-2,-13,-1,0,-1,-1
32801658139,-2,-2,-11,-6,0,-2,-3,-2
32801658139,0,6,20,7,-2,-2,-2,0
32801659669,-1,3,-3,-1,1,0,0,-1
32801659669,-3,-4,8,10,1,1,0,-1
32801680528,0,1,-1,-2,-4,-1,0,-1
32801680528,0,3,10,-1,4,1,1,0
32801682007,-3,1,6,-7,-2,-2,-2,-2
32801682007,1,-1,-2,6,2,-1,-1,1
32801694204,-3,-4,3,0,0,0,-1,-1
32801694204,-2,-9,-13,-8,-3,-1,1,-1
32801703075,0,2,11,7,-2,2,1,-1
32801703075,1,7,-9,-6,1,1,1,1
32801718053,-5,-7,4,-1,-1,-1,-2,-1
32801718053,0,-2,9,-1,-5,0,-3,0
32801719557,-1,-1,-4,-7,6,0,-2,-1
32801719557,1,5,13,2,-1,2,4,0
32801740498,-1,1,-15,1,0,-1,-1,2
32801740498,-1,-8,2,2,-2,1,-3,-1
32801742013,1,8,6,-4,-3,-7,3,2
32801742013,-1,-2,-2,1,-5,13,3,0
32801754179,-5,0,0,-9,2,-2,1,-2
32801754179,2,1,-13,-15,2,-3,3,0
32801763061,-3,0,6,2,-2,0,0,-3
32801763061,-1,0,13,-6,-5,-5,-13,1
32801777935,-1,-6,-2,-10,0,-3,8,-3
32801777935,1,4,0,34,-2,2,-2,1
32801779520,-3,-6,-16,1,1,-5,-3,-3
32801779520,-1,2,2,-13,0,-2,-2,-2
32801800501,0,-6,-3,28,1,-2,-8,-2
32801800501,-2,0,2,-39,-1,-5,-2,0
32801802013,0,-1,0,38,-2,1,1,0
32801802013,-3,-5,-13,-35,0,-1,0,-1
32801814176,1,-1,4,12,0,3,0,2
32801814176,1,1,-2,59,0,0,1,0
32801823024,-4,-8,-2,6,3,3,-2,0
32801823024,0,7,-12,-8,-2,-2,2,0
32801845524,3,7,10,-50,1,0,-1,0
32801845524,-5,-13,-5,13,-8,-2,-1,-1
32801846956,-1,-4,24,20,7,4,0,-1
32801846956,1,-4,-15,8,0,-6,1,0
32801860545,-4,-12,-26,-30,-3,1,-1,1
32801860545,4,17,40,12,4,4,0,2
32801861944,3,1,-17,-16,-6,-2,-1,0
32801861944,-3,-5,-8,-3,4,2,1,-1
32801874226,2,-4,41,33,-4,-2,-1,0
32801874226,2,-3,-81,-32,1,1,0,0
32801883030,-1,7,30,-20,-7,-1,-2,0
32801883030,-1,5,10,-5,-2,0,0,0
32801898032,3,3,-10,25,-4,-1,0,0
32801898032,-4,-2,6,-57,-5,0,-3,-1
32801899543,1,2,-5,33,-2,-1,0,-1
32801899543,-2,2,23,39,0,-1,1,0
32801920522,-4,4,-1,-37,0,-1,0,-1
32801920522,0,-2,19,3,-1,0,0,-2
32801921961,-3,-13,-22,-33,-5,0,1,-2
32801921961,1,-2,8,9,-1,-2,0,-2
32801943065,0,5,-17,14,0,-1,0,0
32801943065,-1,4,33,7,-3,0,0,2
32801944537,-1,-2,-28,-18,1,0,0,1
32801944537,-3,-7,-23,0,5,-1,0,-3
32801958001,2,3,17,9,-4,-1,1,0
32801958001,-2,-3,-18,-35,1,1,-1,0
32801959534,2,10,25,21,3,0,-2,0
32801959534,3,-7,3,17,-2,0,0,1
32801987984,-2,0,-10,-4,-1,-1,-1,1
32801987984,-1,-3,9,-22,0,0,1,0
32801989504,2,7,-22,4,-1,-2,0,2
32801989504,-1,4,61,36,1,-2,-1,-2
32802002875,-5,-14,-36,-6,3,-2,-1,-3
32802002875,-1,-3,10,16,-3,-2,0,-1
32802004552,0,-2,-7,-38,-1,1,1,0
32802004552,3,6,-11,-7,1,1,1,1
32802017518,1,1,8,9,3,0,-1,0
32802017518,-2,-3,-3,-3,-2,-2,-1,-3
32802024048,-1,1,3,0,1,1,-1,-1
32802024048,-2,-7,-2,2,-5,-2,-1,-1
32802040429,-5,-1,2,-5,-1,0,-3,-2
32802040429,-4,-5,-19,1,-5,-1,0,-1
32802041994,1,1,4,11,9,1,0,2
32802041994,-1,7,1,-8,-5,-4,-3,-2
32802062959,2,-10,-8,-19,-3,0,0,-1
32802062959,0,2,-1,20,2,0,-1,-1
32802064533,-1,-4,4,-3,-4,-1,0,0
32802064533,-4,0,-5,-1,2,1,-1,2
32802077258,-1,6,-2,7,1,1,-2,-1
32802077258,2,-1,11,1,2,-1,0,0
32802084008,-2,-3,2,-5,-1,-2,-1,-2
32802084008,1,-3,-14,-1,-3,-3,-2,1
32802100379,1,2,-9,-56,-1,1,-2,1
32802100379,0,0,28,77,8,3,-1,1
32802102133,-2,2,4,-19,-1,-1,0,-2
32802102133,-1,-6,-14,-16,-2,-1,0,-2
32802123054,-2,6,10,9,-1,0,0,0
32802123054,-3,-4,-16,-29,-3,-2,0,-1
32802124653,2,0,-1,7,-3,1,-1,-2
32802124653,1,2,4,0,4,2,3,-1
32802137324,-2,-1,6,1,-2,-2,0,-1
32802137324,2,2,2,8,-2,-1,-1,-1
32802144193,-1,-6,-8,20,0,0,-1,-1
32802144193,-2,-1,-10,-61,-8,-2,-2,1
32802160541,-1,3,11,-9,5,0,-3,0
32802160541,1,1,14,42,-4,-2,-1,0
32802161972,-2,-2,13,-7,1,-1,-2,-1
32802161972,-1,0,-4,19,3,0,0,0
32802182916,1,1,0,-8,-1,1,1,-1
32802182916,1,-2,-1,-30,-4,1,1,0
32802184516,-2,2,-6,7,-3,-1,-2,0
32802184516,0,-2,0,0,0,2,0,-2
32802197370,0,-3,0,17,-3,-2,-1,-1
32802197370,0,-3,-8,-9,0,0,-2,-2
32802204138,1,0,1,-6,-2,-1,-1,0
32802204138,-2,0,-4,0,1,-1,-3,0
32802220471,-4,-7,-5,8,-1,1,0,0
32802220471,3,6,-25,45,0,-1,-2,1
32802222162,4,-1,28,-41,3,0,-1,0
32802222162,1,-8,10,10,-1,-1,-1,-1
32802243047,-3,0,-3,29,3,-3,0,-3
32802243047,-7,-1,-7,-51,-4,-2,0,0
32802244460,-2,2,-9,6,-1,0,1,0
32802244460,-1,2,-2,14,3,0,-1,0
32802257487,1,-4,-9,-13,-3,0,-1,0
32802257487,-1,1,-3,-10,2,0,-1,-2
32802264160,-3,-2,-4,8,-1,-2,-1,-1
32802264160,-1,-3,8,-5,-2,0,-1,-2
32802280489,-1,2,-12,1,-5,1,2,0
32802280489,0,0,26,0,3,-1,1,-1
32802282084,-3,0,2,12,-2,-2,2,-1
32802282084,-2,-5,16,-12,2,-1,0,-1
32802303025,-1,3,-10,15,-1,1,-2,2
32802303025,1,4,9,36,-4,-1,-2,0
32802304629,-2,-5,-8,-44,-2,-1,-1,-3
32802304629,0,0,-4,15,2,1,2,1
32802317242,-1,1,9,-12,2,0,0,0
32802317242,-1,-6,-9,-18,1,0,1,-2
32802324257,-1,-1,-5,12,0,-1,-1,0
32802324257,0,2,-10,-2,0,1,-1,0
32802340579,0,0,16,-5,1,-1,-1,0
32802340579,-3,-3,-18,1,-1,-1,-2,0
32802342096,-3,-4,7,5,-4,-1,-1,1
32802342096,1,-1,-17,-5,-2,-2,-1,-2
32802363094,0,0,14,14,-2,-4,1,-1
32802363094,3,0,-1,-15,2,0,1,-1
32802364557,2,2,-5,0,-2,0,-1,0
32802364557,-2,-5,-9,7,-3,0,0,2
32802377471,0,-1,-3,0,-2,0,1,1
32802377471,-2,-1,3,-12,-3,0,-1,0
32802384070,-1,2,-10,4,1,0,-1,-1
32802384070,1,0,-6,-3,4,1,0,-2
32802400467,1,-2,0,-3,0,-1,1,-1
32802400467,-5,1,9,-6,-2,1,0,-1
32802401951,0,-1,-10,-4,1,0,1,-1
32802401951,1,4,7,4,-3,-1,-1,0
32802423084,1,-2,-8,-2,1,0,0,0
32802423084,0,-5,1,-4,-1,-2,-2,-1
32802424592,0,0,6,6,-2,1,-1,0
32802424592,-1,0,9,-3,-5,0,-3,-2
32802436745,-3,1,-2,3,-1,-1,-3,0
32802436745,-1,-1,2,-19,-1,-2,-2,-1
32802445566,-3,-12,-18,5,-3,-1,-1,-2
32802445566,0,10,32,15,1,-2,-2,-1
32802460554,-2,-11,-46,-11,-1,-2,0,0
32802460554,0,4,-24,-16,-1,0,1,1
32802462070,-1,-12,20,12,1,0,-1,0
32802462070,0,-4,-11,-2,-1,-1,0,0
32802482964,1,10,55,15,0,-2,-1,-3
32802482964,-2,-3,-3,31,0,-2,0,-1
32802484571,2,8,0,-15,0,0,2,1
32802484571,-4,-15,-23,-11,-1,-2,1,0
32802496677,3,1,1,5,0,0,-3,-1
32802496677,1,1,9,9,2,-1,0,-2
32802505562,-1,10,3,-1,0,-2,0,0
32802505562,-3,-15,4,15,3,0,-1,0
32802520577,0,-1,-19,0,-10,-3,-1,-1
32802520577,-2,0,17,0,1,1,1,0
32802522090,0,4,-16,6,-3,0,0,0
32802522090,1,10,6,-28,-4,1,1,1
32802543533,-3,-6,9,17,9,1,-1,0
32802543533,-1,-2,-6,10,-3,1,-1,0
32802545049,0,2,-8,-16,2,0,-1,0
32802545049,-4,-7,0,-4,-3,-2,-3,-2
32802556698,-3,-2,-11,-12,-4,-1,0,0
32802556698,0,4,-2,-8,-5,0,1,2
32802565669,-2,-1,-4,45,3,0,1,-1
32802565669,1,3,-3,-47,-4,-3,-1,1
32802580590,1,4,9,-3,-2,-1,-1,-1
32802580590,0,1,-6,-4,6,0,0,0
32802582055,1,-4,4,5,0,1,-1,2
32802582055,0,5,2,18,-1,2,-1,-2
32802603050,-1,-6,1,-14,-2,0,1,-1
32802603050,-1,3,-5,-7,0,-3,-1,-2
32802604543,0,-4,-6,0,-3,-1,-2,1
32802604543,0,3,4,3,3,-1,2,-1
32802616732,1,2,-10,-9,-2,0,-2,0
32802616732,-3,0,8,6,-3,-1,0,-2
32802625540,-2,-6,-4,-14,-1,0,-2,-1
32802625540,0,-1,-12,-1,0,-1,2,2
32802640590,-1,1,29,8,-2,-2,0,-1
32802640590,-1,-7,-22,-7,2,-1,-1,-1
32802641947,-2,0,11,-6,3,0,0,-3
32802641947,0,5,9,15,0,0,-1,0
32802663078,-2,-5,-13,10,2,-1,0,0
32802663078,1,0,8,-17,-4,0,0,1
32802664582,-2,2,2,-9,0,0,-1,-1
32802664582,0,0,-18,13,2,1,-1,-1
32802684709,1,-2,0,-14,-1,1,0,0
32802684709,-1,-3,10,6,-3,-2,-3,-3
32802685501,-1,0,1,-2,-3,-1,0,-1
32802685501,1,6,-3,7,3,-1,0,0
32802699697,0,3,0,-6,-5,-1,-1,0
32802699697,-1,-6,-19,-4,2,1,-3,-1
32802700493,0,-5,17,4,-1,-1,0,-1
32802700493,-3,-5,-15,-3,-2,-2,-1,-1
32802722336,2,6,21,10,6,1,0,-1
32802722336,-4,-4,-3,-13,-3,1,2,1
32802723030,1,3,1,2,-3,-3,0,-1
32802723030,3,7,-5,-20,-1,1,0,0
32802744745,-3,-22,-7,3,-1,-1,-1,-1
32802744745,0,-3,24,20,-3,-1,0,0
32802745517,-3,5,-22,-13,-2,-2,-2,0
32802745517,1,5,5,8,-1,1,-1,-2
32802759918,-4,0,1,-3,-2,-2,-3,-1
32802759918,0,9,-12,-24,2,1,-1,0
32802760526,0,-7,5,31,-3,-1,-1,0
32802760526,-3,-9,8,-3,-1,1,1,1
32802782298,0,9,-12,3,0,-3,-1,-3
32802782298,-1,4,-7,-23,-3,-2,-2,-3
32802783002,-2,-12,0,5,2,-1,-1,-1
32802783002,1,5,1,-1,-1,-1,-1,0
32802805391,-2,-3,-9,4,-5,-1,-1,1
32802805391,-1,-2,-11,-6,-4,-2,-1,1
32802806802,4,9,3,30,6,1,1,1
32802806802,-3,-25,-6,-47,-2,-2,-3,-2
32802819745,0,-7,-7,13,1,1,-1,1
32802819745,0,12,35,8,2,-2,-1,-2
32802820580,-3,0,-2,-9,-4,-2,1,-1
32802820580,-2,1,-24,-2,1,0,-1,0
32802842476,1,1,6,-5,0,-2,-2,-1
32802842476,-2,-8,1,12,1,1,2,1
32802843035,0,1,2,-20,-1,0,-2,-2
32802843035,-1,-2,5,12,-2,-1,0,-2
32802864835,1,5,-6,-19,0,0,0,-1
32802864835,-1,-4,12,50,-3,-2,-2,-3
32802865536,-1,-2,-3,-38,-3,-1,-1,-1
32802865536,-1,8,2,19,-4,-1,-1,0
32802879737,2,1,-4,1,11,4,0,1
32802879737,2,-1,-1,10,1,1,0,1
32802880523,-2,-4,-1,26,1,-1,0,-3
32802880523,1,24,6,-46,0,2,-1,-1
32802902264,-4,-27,-32,-4,-8,-4,0,-2
32802902264,1,2,22,13,-1,-2,-1,2
32802903044,-2,-1,-23,-51,5,-1,0,0
32802903044,0,3,16,89,-1,-1,3,0
32802925565,0,7,-5,-22,-3,0,2,0
32802925565,-2,-4,-18,6,-2,1,-1,-2
32802926299,1,2,6,-37,-1,0,0,1
32802926299,0,-11,-6,1,6,-2,-1,-3
32802939711,0,4,-9,-6,-3,1,-3,0
32802939711,-4,-7,3,13,-6,-1,-1,-3
32802940513,1,4,16,8,0,0,0,-1
32802940513,-1,2,-5,13,0,-3,-2,-2
32802962374,-2,-8,-9,-2,-1,-4,1,-2
32802962374,1,-1,-19,-22,2,1,-2,-1
32802963048,-1,0,4,12,-4,-3,-1,-2
32802963048,0,-2,5,-8,-2,0,0,0
32802985581,1,10,9,8,-1,0,-1,0
32802985581,-2,-15,-16,-16,1,-1,-1,0
32802986245,0,-4,4,5,-2,-1,-3,-1
32802986245,-1,-3,5,-4,-6,-1,1,-1
32802999928,-1,7,9,20,1,0,1,0
32802999928,0,8,-4,-23,0,1,-2,1
32803000568,1,-1,-18,10,1,2,-1,2
32803000568,1,-2,25,-5,1,2,1,0
32803022274,-2,1,5,-5,-3,2,0,0
32803022274,1,0,-9,-3,1,-1,2,1
32803023019,2,2,5,-1,-4,-1,1,-1
32803023019,-2,-3,-14,-5,-1,-1,-2,-1
32803045555,0,0,27,5,2,0,0,1
32803045555,-1,-5,-28,-7,-4,0,-2,-1
32803046279,-2,4,2,-7,-4,-1,-2,-1
32803046279,1,-10,-4,5,5,0,-1,-2
32803059764,-2,1,17,-1,-2,-1,0,-2
32803059764,-1,3,5,-3,7,0,1,0
32803060565,-3,-5,-22,-12,-5,-3,-2,-2
32803060565,-2,0,23,21,0,0,0,-1
32803082372,0,-1,-6,-11,1,-1,-1,0
32803082372,3,4,-2,1,-2,1,-1,1
32803083036,1,1,12,4,0,0,0,0
32803083036,-1,-1,-9,-8,-3,0,-1,-1
32803105526,0,-2,-13,0,0,-1,1,0
32803105526,-2,-6,0,-5,-1,-1,0,-2
32803106318,-3,4,18,9,-1,-1,-1,-2
32803106318,-3,0,-8,-9,-10,-2,-3,-1
32803119845,1,1,-12,5,9,3,0,1
32803119845,-2,2,7,-5,-4,-3,-1,-3
32803120522,-4,-4,1,3,1,-1,-1,-2
32803120522,2,1,-2,5,-4,0,0,0
32803142330,-1,-1,-4,-7,-3,-2,-1,-2
32803142330,-1,-1,13,4,0,-2,-1,-1
32803143136,-2,1,-21,-2,2,1,-1,0
32803143136,0,2,-13,-5,-1,-2,-1,1
32803165597,-2,-3,2,-2,-1,-2,-2,-1
32803165597,1,-3,11,-2,1,0,0,-1
32803166273,-2,-2,8,6,-3,-2,0,0
32803166273,1,1,-6,-5,8,1,-1,1
32803179753,-3,4,0,-1,-4,-3,0,-1
32803179753,-1,-1,-10,-2,-2,-1,-4,-2
32803180636,1,-1,1,7,3,1,-1,-1
32803180636,-1,-3,-3,-3,-1,0,0,-1
32803202302,2,-2,-9,-10,-1,2,0,0
32803202302,-2,0,14,23,2,-1,-1,0
32803203096,-1,-2,-2,-1,0,-2,0,-1
32803203096,-1,1,-5,3,-3,-1,0,0
32803225636,-3,-3,6,4,-1,-1,-1,0
32803225636,1,-2,-14,-17,3,0,0,0
32803226273,2,0,-15,-11,-1,3,0,1
32803226273,-1,-4,7,-13,-1,-2,-1,-1
32803239836,2,6,-16,30,4,-1,0,-1
32803239836,0,6,6,-39,-7,-3,-2,-2
32803240551,-1,-6,17,44,-1,-2,1,-1
32803240551,1,-5,6,-31,2,-1,1,0
32803262408,-1,-7,-35,44,-1,1,0,0
32803262408,-1,15,33,-51,-1,-1,0,1
32803263005,4,-10,10,13,-2,1,0,0
32803263005,2,12,1,7,-2,3,1,-1
32803285577,-2,-15,14,-1,-1,-1,0,1
32803285577,-2,2,-18,-21,4,0,-1,-2
32803286304,-5,-10,7,-12,-6,-3,-1,-2
32803286304,1,2,-10,29,3,0,-2,-2
32803299139,1,8,45,-2,-4,0,1,-3
32803299139,-2,-1,-51,-16,1,1,1,2
32803307521,-1,2,-15,2,2,1,-1,0
32803307521,-3,-10,10,8,-3,-3,-2,-1
32803322379,0,16,19,-62,0,0,-3,0
32803322379,0,-12,-13,59,-5,-2,0,-2
32803323056,1,-10,-32,-19,1,0,-1,0
32803323056,-2,6,25,15,-1,0,0,0
32803345657,1,-9,-7,-13,1,-2,0,0
32803345657,4,1,7,5,0,1,-1,1
32803346278,-3,3,8,23,-2,-1,-2,-3
32803346278,0,-1,-18,-20,1,0,0,1
32803359927,0,2,-11,-2,-2,0,-1,-2
32803359927,-3,-8,3,14,-1,0,-2,0
32803360547,1,1,-3,-9,-3,-1,0,1
32803360547,-2,6,3,0,1,-1,0,-1
32803382309,1,-2,20,4,-2,-1,-1,0
32803382309,-1,-8,-41,3,-3,-3,-1,-1
32803383074,-1,6,6,-9,-1,0,-3,-3
32803383074,-1,-6,-5,-8,-1,-1,-3,-1
32803405623,0,-2,3,6,2,-1,0,1
32803405623,1,-1,11,6,-3,1,-1,-1
32803406274,2,3,-1,-7,1,-2,-2,1
32803406274,0,2,-9,3,-3,-2,-2,-3
32803419956,0,-1,-2,0,-3,0,-1,-2
32803419956,-2,-2,6,6,0,-1,0,0
32803420571,-1,6,0,-2,0,1,0,-1
32803420571,1,-7,-5,-3,0,0,1,-2
32803442421,0,0,-10,-2,2,-1,2,-1
32803442421,0,4,11,11,1,0,0,0
32803443082,-2,-2,2,-10,-1,0,0,-1
32803443082,1,-2,-3,0,-2,0,-1,0
32803465655,-3,1,-3,0,2,1,-1,0
32803465655,-1,-11,-2,6,-1,-1,-1,-1
32803466295,1,0,-10,-2,-1,-7,-4,-1
32803466295,-1,-1,-8,-26,-1,-11,-20,-3
32803479164,-5,-2,-8,55,2,-15,7,-4
32803479164,-1,12,22,-57,-3,30,7,3
32803487501,-3,-19,5,58,-2,5,4,0
32803487501,4,1,-12,-56,2,-1,0,-1
32803502446,-1,2,-6,21,-1,5,-9,-1
32803502446,2,-3,7,8,-1,-13,1,-3
32803503049,1,1,-11,-9,0,-1,8,2
32803503049,-5,2,2,-57,1,8,4,-2
32803525629,-2,-7,7,52,-7,-8,9,-2
32803525629,6,0,-26,-16,-3,-5,-8,-1
32803526295,-3,6,24,-6,-1,3,-4,-2
32803526295,2,-11,-29,-36,-11,-7,-1,0
32803539268,-5,-4,1,-17,-1,4,-1,0
32803539268,-4,0,1,58,-1,-5,0,-1
32803547422,2,8,16,-45,-6,-1,-1,1
32803547422,-1,-13,-39,24,-2,4,6,-1
32803562446,3,6,-14,-55,1,2,-5,-1
32803562446,-5,-8,13,27,1,-4,-2,-1
32803563062,2,6,6,-71,-6,-3,-1,1
32803563062,-2,7,20,82,4,4,1,1
32803585569,0,-2,0,-17,1,3,-2,1
32803585569,5,4,-22,-9,5,-4,-2,0
32803586263,-2,0,-9,32,0,0,1,-4
32803586263,0,6,-22,14,-2,-2,1,-2
32803599302,2,-1,70,-6,9,4,0,-1
32803599302,-2,3,17,-9,-1,0,3,-1
32803607348,-1,-5,-27,-18,-3,0,-1,-2
32803607348,-3,-4,5,36,9,1,2,1
32803622483,0,0,-19,8,-5,-4,-3,-1
32803622483,0,10,8,-4,-5,-4,0,-2
32803623055,-2,-8,1,0,5,0,0,1
32803623055,0,12,2,-1,-4,0,-1,-1
32803645465,-1,-8,-6,-7,-3,-1,-2,1
32803645465,-5,1,34,-3,8,-1,1,0
32803646028,-1,-2,-32,22,-5,-5,-4,-2
32803646028,-1,2,18,-7,1,0,2,1
32803659311,-2,4,14,-11,-8,-2,-4,-1
32803659311,-2,-7,-26,11,5,2,-2,-1
32803667399,2,14,23,5,2,-1,-1,1
32803667399,-5,-14,12,3,-2,-1,-2,-1
32803682469,3,4,-17,-10,-2,2,3,1
32803682469,0,-12,-14,1,-6,-3,-1,-1
32803683066,-2,-10,-20,-3,3,3,-1,-1
32803683066,-3,9,38,7,0,-2,-2,0
32803705662,-1,-11,-10,-5,-6,-3,-2,-2
32803705662,-1,5,0,-10,1,0,1,-1
32803706276,-2,0,3,-3,-2,0,0,1
32803706276,-2,-6,1,7,0,1,-1,0
32803719204,0,6,-2,5,-1,-1,-2,-3
32803719204,2,1,-14,-2,-4,-2,1,0
32803727479,-2,-1,-3,0,1,-1,0,-1
32803727479,-1,-3,0,2,0,0,0,1
32803742496,0,3,-7,-4,3,0,0,1
32803742496,1,0,-2,1,-3,-1,-3,-2
32803743087,1,1,11,-2,6,0,-1,-2
32803743087,-1,-2,-12,-7,-4,-2,-1,-2
32803766156,1,-4,-9,3,-1,0,1,-1
32803766156,-1,0,11,-5,0,-1,0,1
32803766873,-1,3,1,6,-2,-1,-1,0
32803766873,0,2,6,0,-2,-2,-2,0
32803779265,0,2,-7,5,2,-3,0,0
32803779265,-2,-2,-5,1,-2,2,1,-1
32803787478,-1,-2,-5,-6,-2,-4,-4,-2
32803787478,1,-1,12,5,0,-7,-8,-1
32803802292,-2,0,-6,-5,-1,7,15,0
32803802292,-3,-1,1,-7,-4,-2,2,0
32803803085,-2,1,5,17,-2,-20,16,-2
32803803085,4,3,-13,-4,8,54,4,9
32803825456,-1,1,-4,-18,-3,-11,-15,-1
32803825456,6,5,-6,24,1,5,7,-3
32803826312,-11,-9,-17,4,-2,-4,-13,0
32803826312,-5,1,17,-32,-5,-6,15,0
32803848122,4,-4,-2,-13,-3,-40,-40,-5
32803848122,2,3,2,-13,9,56,11,8
32803848742,7,11,8,33,7,18,31,0
32803848742,1,-19,-24,6,-4,-5,-14,2
32803862439,-2,-3,-3,-19,-1,-3,3,1
32803862439,2,-3,-14,40,1,-51,-30,-7
32803863083,17,4,6,2,6,19,0,6
32803863083,-8,3,16,-18,1,7,5,-1
32803885466,-6,-5,-9,30,-5,14,24,0
32803885466,10,-5,-2,-67,-9,-14,-16,-5
32803886403,-4,0,3,-10,-1,0,-5,1
32803886403,-1,8,2,28,1,-14,7,-9
32803908090,4,4,-1,-19,6,5,4,7
32803908090,-8,-9,-24,85,1,8,24,0
32803908809,-5,-1,7,-95,0,-15,-4,-1
32803908809,5,-1,21,-25,-12,-13,-4,-4
32803930591,1,9,-7,32,8,9,-8,-1
32803930591,-8,-2,-5,-5,-4,-2,8,-1
32803931276,-4,-2,-32,36,-1,-2,0,-2
32803931276,0,3,14,-83,6,-7,-4,1
32803945466,3,-10,16,76,0,11,5,0
32803945466,-5,-12,36,27,-5,-10,-4,0
32803946430,-2,2,0,2,-4,0,-7,-2
32803946430,1,-2,-22,-8,-4,-1,-5,0
32803968000,2,6,-11,-4,-5,-6,1,-2
32803968000,-5,-2,7,-26,1,1,-3,-1
32803968739,-3,-2,23,32,0,1,-11,-1
32803968739,0,-2,-10,29,2,-5,3,-2
32803982313,0,0,-1,-31,-1,1,2,-2
32803982313,-3,12,10,-33,-4,-1,-4,1
32803983080,1,-4,1,-18,-6,3,-1,-2
32803983080,-2,-11,-35,17,-1,-7,-2,-2
32804005396,-3,-3,7,22,0,2,0,-1
32804005396,4,15,6,-31,-2,4,-2,1
32804006241,-7,-12,-8,13,4,-5,-4,-4
32804006241,2,0,2,21,1,-2,0,1
32804028006,-2,-1,12,-17,-4,0,-2,1
32804028006,1,-3,-16,-11,-2,1,2,0
32804028800,2,7,8,-12,-3,-1,-3,0
32804028800,-2,-10,11,31,1,-5,-3,-2
32804042409,0,-4,-15,-25,2,6,2,-1
32804042409,0,2,-7,-4,-2,-1,-1,1
32804043148,0,0,-6,12,1,3,-1,-1
32804043148,1,3,6,3,-2,0,-1,-1
32804065597,0,1,-3,35,3,-2,-1,-1
32804065597,-2,-5,23,-55,-5,-3,-1,-2
32804066279,-1,2,-12,-4,-2,-2,-2,-1
32804066279,0,4,14,25,1,-1,2,0
32804088153,-1,3,2,-8,0,-1,0,0
32804088153,0,1,5,14,4,-1,-2,0
32804089670,0,-8,-19,-6,-2,0,-2,2
32804089670,-1,5,10,11,-3,-3,-1,0
32804102399,-2,-4,-16,-19,3,-1,-1,1
32804102399,1,2,4,2,0,1,-1,-2
32804103075,2,0,8,4,-5,-1,-2,1
32804103075,-2,-1,-10,-7,4,-2,1,-2
32804125680,-5,-9,5,7,-1,2,-2,-1
32804125680,0,5,4,7,-2,-1,0,-1
32804126251,1,-5,-17,-14,-4,-2,1,0
32804126251,3,7,14,30,1,1,0,1
32804148202,-4,3,-7,-20,-1,-1,1,-2
32804148202,-4,-13,-2,27,2,-2,1,-3
32804148821,1,2,5,16,-1,-1,1,-2
32804148821,-2,-3,-3,-28,-4,-1,-3,-1
32804162458,1,-4,-18,-25,-3,-2,-1,-1
32804162458,-1,6,-3,14,-1,0,0,-1
32804163079,-2,6,5,3,0,-1,-3,-2
32804163079,0,-4,-7,3,-4,0,0,0
32804185526,-2,-4,-23,-15,3,-2,0,-2
32804185526,0,4,-19,-12,-1,-1,-3,0
32804186343,-1,-10,8,5,2,1,0,2
32804186343,-1,2,6,16,1,-1,0,-3
32804208114,-2,2,1,-7,-4,-1,-1,-3
32804208114,0,0,-15,2,-5,-2,-1,-1
32804208769,1,6,29,-1,2,-3,1,0
32804208769,-2,-5,-29,-8,-3,-1,-2,2
32804222479,1,2,33,-13,1,0,1,0
32804222479,-4,-3,-4,12,1,-1,-2,-2
32804223107,-4,-11,-4,-2,-3,-2,-1,-1
32804223107,-1,4,3,-38,-1,0,-1,1
32804245511,2,5,10,51,-4,-1,0,1
32804245511,-2,-9,5,-8,4,0,-1,0
32804247141,0,0,-4,-9,1,0,-1,-2
32804247141,2,3,3,2,0,-2,-1,-1
32804268012,-1,0,-15,-6,2,2,1,1
32804268012,-3,-7,-2,-43,-4,-3,-2,-3
32804269704,1,13,0,84,6,1,0,1
32804269704,-5,-7,-8,-78,-4,0,-1,-2
32804281654,2,1,3,36,0,-1,-3,0
32804281654,1,-3,10,-12,0,1,1,2
32804290764,1,1,-19,-28,-3,-1,0,-2
32804290764,0,1,15,30,-1,-4,0,-1
32804305480,-3,-3,-25,-24,9,-2,-2,0
32804305480,-1,2,1,13,2,0,1,2
32804307114,-4,-15,-9,-10,0,-2,-1,-1
32804307114,-1,1,2,13,-1,0,-2,0
32804328195,-1,2,21,-17,-4,-1,-1,-2
32804328195,1,0,-8,19,4,0,-2,-1
32804329608,-1,-5,0,-31,-3,-2,0,-1
32804329608,-1,-7,2,29,1,2,0,0
32804341838,-1,12,-5,-3,-2,0,-1,-1
32804341838,-4,-12,-17,0,-3,-1,0,0
32804350603,-1,-3,19,3,0,-1,-1,-1
32804350603,2,6,9,5,5,2,2,1
32804365656,-1,-10,-17,-5,-4,1,-1,0
32804365656,-2,2,10,8,-2,-3,-3,-2
32804367264,0,2,-8,-16,-3,0,-1,0
32804367264,1,-3,-15,3,-1,0,-1,-2
32804388143,2,6,37,11,-2,0,1,1
32804388143,4,6,-35,-18,0,2,0,1
32804389672,-1,-5,4,7,0,1,0,0
32804389672,-1,0,0,-2,0,-3,-2,-2
32804401620,2,-2,-6,0,-2,-2,-2,-2
32804401620,-3,-4,10,-16,-2,-2,1,0
32804410703,-1,1,7,-8,-2,-2,-1,-2
32804410703,-1,-6,-25,23,-2,0,0,1
32804425515,-4,-2,8,1,-1,0,1,-1
32804425515,0,-1,-9,3,0,-3,-7,-4
32804427163,-1,6,-10,-30,-3,2,4,3
32804427163,1,3,4,-23,-1,0,2,1
32804448065,-1,-2,-8,-17,-5,-3,2,-3
32804448065,0,-10,4,26,1,2,-3,-1
32804449713,0,-2,2,11,-1,-2,-2,-3
32804449713,0,1,2,1,-2,-17,-26,-4
32804461802,3,5,-6,2,0,15,26,8
32804461802,1,-2,1,-2,-3,-34,9,-2
32804470662,11,9,5,5,2,16,3,6
32804470662,-7,-22,9,7,3,9,7,6
32804485587,-1,4,-18,-13,-2,6,23,-16
32804485587,-11,-10,20,14,3,-10,-50,-9
32804487160,22,13,-20,-10,-5,-15,-26,0
32804487160,-4,-3,1,5,5,30,8,11
32804508041,9,10,10,-5,-3,-28,-5,6
32804508041,28,-8,-6,7,3,33,17,9
32804509667,-8,-7,3,7,2,-3,56,-6
32804509667,-14,0,-1,-4,-3,4,-49,8
32804521706,-4,-4,-8,-3,-4,-7,3,-4
32804521706,9,8,7,0,-1,-8,-7,-2
32804530740,-29,-2,-8,-4,0,13,-3,5
32804530740,6,5,-6,9,-3,-12,16,-14
32804545584,-4,-5,-7,-6,1,-4,-11,3
32804545584,2,2,27,-1,-2,1,0,15
32804547200,-10,-8,-15,1,-2,4,1,-7
32804547200,1,1,5,-4,-2,-17,8,-8
32804568106,-2,-2,6,1,2,5,-19,-2
32804568106,-10,13,-6,8,-1,3,10,4
32804569675,3,-3,14,-9,0,-13,-16,-4
32804569675,5,-2,-17,11,-1,2,8,-2
32804581744,6,5,24,-18,2,-1,-8,4
32804581744,-2,-7,24,63,-1,7,11,-4
32804590635,3,1,-23,-61,10,3,-3,-1
32804590635,0,4,-6,61,-11,-7,-2,-2
32804605648,-6,-14,20,76,1,9,0,0
32804605648,-10,4,-21,-26,-3,-5,1,-7
32804607163,-4,-4,9,-28,-12,-6,-9,-3
32804607163,1,-3,-32,-69,7,3,7,0
32804628172,-1,-3,2,-19,1,-5,-7,-2
32804628172,0,5,20,19,2,5,3,-2
32804629643,9,5,-36,-22,-7,-2,-3,4
32804629643,0,-2,17,13,1,0,3,-2
32804641691,3,0,-11,-56,-1,1,-2,0
32804641691,-6,-1,-17,7,4,1,-1,-3
32804650669,-1,-9,50,26,-2,0,-1,-1
32804650669,-2,-4,-29,2,-3,-3,1,-2
32804665448,-1,3,5,5,-4,-4,-9,-4
32804665448,-2,2,-8,-35,-3,-2,5,0
32804667094,1,-2,-2,20,-1,-6,2,-3
32804667094,15,8,18,8,4,8,1,2
32804688071,-6,-4,-8,-6,3,1,1,3
32804688071,-2,-7,-10,-14,-6,-5,-5,-1
32804689632,0,2,8,-11,0,-2,-3,-2
32804689632,3,-2,-11,-39,3,-1,2,-2
32804701648,-1,1,5,83,-4,-2,-4,-1
32804701648,-5,-5,5,-18,0,3,0,-2
32804710760,0,1,24,21,5,2,-3,0
32804710760,-1,11,0,32,1,0,2,1
32804725554,-6,-12,-19,-33,-6,-3,-4,-2
32804725554,-1,4,5,9,-1,3,1,-1
32804727132,2,-4,-6,2,6,1,0,-1
32804727132,-1,9,-8,-25,-2,-2,-1,2
32804748063,-1,-5,31,-5,3,1,1,-3
32804748063,4,-2,-19,12,-1,0,4,0
32804749632,-1,5,12,24,0,-1,-5,-1
32804749632,-6,-1,7,20,-1,-3,0,-1
32804761625,1,2,2,-23,-7,0,-1,1
32804761625,-1,3,-22,-33,4,2,-1,1
32804770681,-3,-2,12,36,-2,-1,-1,-1
32804770681,-2,-3,2,-37,0,0,2,-1
32804785557,-5,-3,-11,8,-1,3,0,0
32804785557,3,5,9,28,-6,-3,-3,-1
32804787130,1,1,-1,-17,-8,-1,1,0
32804787130,0,0,7,-15,-3,-1,1,-3
32804808013,-1,-3,-14,-11,2,1,0,-1
32804808013,-1,0,-2,-2,-1,0,2,0
32804809662,-1,-2,-17,3,1,1,-2,-1
32804809662,-1,-3,4,-15,-3,-1,-3,-1
32804830622,1,1,0,8,2,1,-1,0
32804830622,-2,-2,2,-9,1,1,1,-1
32804832304,1,3,2,-12,-4,-2,-3,2
32804832304,-7,-7,-16,25,2,-3,-3,-3
32804844990,-1,2,0,-5,0,-3,0,-1
32804844990,-2,-5,2,-12,-1,0,0,-1
32804851751,0,-1,-12,-5,1,0,0,-1
32804851751,0,2,6,14,-2,-1,0,1
32804868225,-1,-4,-5,-8,-2,0,0,0
32804868225,0,0,-4,-9,-3,0,-2,0
32804869620,-1,-1,-6,14,2,0,1,0
32804869620,-1,-3,5,2,-1,-1,0,-1
32804890731,1,3,-7,-3,0,0,0,-1
32804890731,0,-1,4,-12,-3,-2,-1,-1
32804892178,-3,0,-11,-23,4,-1,0,-1
32804892178,2,2,-6,4,-3,-2,0,1
32804904956,-3,0,11,10,-3,-4,-1,-2
32804904956,-1,3,5,0,-1,0,-1,0
32804911854,-1,-1,-8,-15,1,-1,0,1
32804911854,-3,-1,-7,-4,-2,0,0,0
32804928131,2,1,-3,7,1,1,0,1
32804928131,-1,-2,-2,-10,2,-1,-1,-2
32804929721,2,-1,-1,4,-2,-2,-1,-1
32804929721,-1,-2,10,6,0,-1,-1,-1
32804950665,1,-2,-4,3,-4,0,0,-1
32804950665,-1,-2,-1,24,4,1,-1,-1
32804952177,0,-3,-11,-33,-9,-1,-2,0
32804952177,-3,-1,22,71,3,0,-1,0
32804964982,-3,7,2,-27,-1,-3,0,-2
32804964982,1,-13,-19,-17,-7,-2,0,-2
32804971877,-1,5,-5,6,2,0,0,0
32804971877,1,-11,-8,-13,1,0,0,0
32804988191,0,1,1,11,-1,-1,0,1
32804988191,-1,4,7,-2,-1,-2,-1,1
32804989731,1,-2,1,23,-3,-1,0,-3
32804989731,-1,0,0,-26,-2,0,1,-1
32805010566,-1,-6,-5,-1,-2,-2,-3,-1
32805010566,-1,1,2,-5,6,1,1,1
32805012136,-2,-3,-6,10,0,-2,-3,-1
32805012136,0,3,2,-20,1,0,1,0
32805024866,-2,-10,-11,16,5,2,0,0
32805024866,-3,-1,-5,-25,-6,-4,0,-2
32805039324,0,2,8,11,-2,2,0,1
32805039324,6,-1,-1,2,1,-2,-2,-4
32805048154,-14,-2,-6,-5,-1,0,0,0
32805048154,1,5,4,14,1,1,1,1
32805049688,-3,-4,-8,5,0,-1,-2,-1
32805049688,-5,-3,-9,-24,-6,0,-1,0
32805070677,8,6,47,7,2,-1,-1,0
32805070677,-3,-12,-41,12,-2,-2,-3,-2
32805072215,2,9,16,4,1,-1,2,2
32805072215,0,0,8,8,0,-1,0,1
32805085031,1,-24,-12,-16,-1,-2,-2,-1
32805085031,-1,8,-10,-12,-4,-3,-1,-2
32805091702,4,8,11,3,-1,0,-2,-2
32805091702,0,-26,-21,-7,-2,-2,1,-1
32805108182,-4,19,-15,-8,-1,-1,0,-1
32805108182,1,21,21,7,0,0,-1,2
32805109801,-5,-37,-17,9,-2,0,0,-1
32805109801,-1,18,14,-8,-3,-2,-1,-2
32805130742,1,-37,-27,-7,-2,0,-1,1
32805130742,0,19,-1,1,-2,2,-2,-4
32805132264,-3,5,-5,-2,0,-2,1,-1
32805132264,-2,4,14,2,0,-1,0,-1
32805144987,0,5,1,-4,-1,0,-1,-1
32805144987,1,-8,6,12,2,0,-1,1
32805151691,2,-4,-23,-10,-3,2,1,2
32805151691,-1,17,9,-11,-2,-3,-1,1
32805168201,3,-7,-19,8,-4,-1,0,2
32805168201,-3,8,19,8,4,1,0,0
32805169712,-3,-15,-4,-5,1,-1,-1,-1
32805169712,3,5,14,9,-2,1,1,2
32805190628,0,3,-40,-5,-3,0,-2,0
32805190628,3,1,0,-11,-4,-4,-2,-2
32805192285,2,8,3,13,1,0,0,0
32805192285,0,-4,0,-8,6,0,-1,-1
32805204944,1,16,58,7,-2,2,0,-1
32805204944,-2,-16,-14,-17,-1,0,0,0
32805211680,-3,5,7,3,-2,1,-2,-1
32805211680,-4,-3,-17,-9,-3,-2,-2,-1
32805228171,0,0,5,-2,0,0,-1,-2
32805228171,-1,-11,5,-6,3,0,0,-1
32805229722,3,11,4,-1,-1,-1,-1,-1
32805229722,0,1,7,13,2,0,-1,0
32805250571,-1,3,-10,-9,-1,-1,0,-1
32805250571,-5,-8,13,5,0,1,2,1
32805252191,-2,2,4,27,1,-2,-4,-1
32805252191,-3,-6,-6,-14,-6,-3,-1,-1
32805264351,-1,-6,-11,57,7,-1,0,0
32805264351,1,7,16,-81,-13,-4,-4,-3
32805273195,-2,-10,-30,-49,-3,0,2,-1
32805273195,-1,-4,-4,89,11,1,-1,-1
32805288063,-1,4,9,12,-1,-2,-1,0
32805288063,1,-7,-2,-53,-4,-1,0,1
32805289576,-2,9,19,1,1,0,-1,0
32805289576,-3,-16,-26,4,-11,-5,-1,-3
32805318042,0,1,-5,-5,3,-1,-1,-2
32805318042,1,3,-5,76,6,2,-1,0
32805319709,-1,1,13,-35,-8,0,0,0
32805319709,-2,-2,21,-20,-1,1,-1,-1
32805324357,1,3,5,-1,-1,-2,-2,-1
32805324357,-1,-3,-11,-8,-9,-3,0,-1
32805333248,-1,-1,-7,8,5,-1,-2,0
32805333248,-1,-1,-14,-14,0,2,3,-1
32805348068,3,14,5,-14,-2,0,0,0
32805348068,-2,-16,-7,3,6,2,2,0
32805349667,2,2,-17,12,-2,-3,0,-1
32805349667,-3,-8,15,12,1,1,-2,1
32805370558,-3,-3,-2,-31,-2,-3,-2,-2
32805370558,0,10,-6,14,-1,-2,-1,-1
32805372264,-1,-9,10,9,2,-2,-1,0
32805372264,1,7,-4,-16,1,-1,-2,0
32805384200,3,7,-2,-6,-1,1,0,0
32805384200,-3,-6,6,17,1,1,0,0
32805393264,-2,-13,7,-1,-2,-2,-4,-2
32805393264,-1,2,-34,-21,-1,-2,1,0
32805408232,-1,-4,15,30,-3,-3,0,0
32805408232,-3,0,-7,-4,3,1,1,-3
32805409710,-1,6,2,-3,5,1,-1,-2
32805409710,0,-6,-1,-1,-3,-1,-2,0
32805430719,-2,-4,-3,-15,2,-1,-1,-1
32805430719,3,5,8,11,0,-1,-1,1
32805432436,1,6,-7,6,-3,-1,-2,-2
32805432436,0,4,19,-15,1,2,-1,0
32805444335,-5,-9,3,7,-2,1,0,-1
32805444335,0,-1,17,5,0,-1,-1,1
32805453300,3,7,-34,5,4,2,-1,2
32805453300,-2,0,0,-3,-3,-2,0,-1
32805468211,2,-1,-1,-12,-5,0,0,-2
32805468211,-6,-18,-38,7,4,0,-1,-1
32805469691,2,18,39,18,-5,-3,1,0
32805469691,0,13,-15,-20,2,-1,1,0
32805490691,-1,-2,4,0,2,-1,-2,1
32805490691,0,1,-26,-4,-3,-2,-2,2
32805492254,-3,-11,20,12,-3,-1,-2,-1
32805492254,1,3,8,4,-2,0,-3,0
32805513199,1,7,1,0,5,1,0,-1
32805513199,1,11,0,9,-2,0,0,-2
32805514865,-3,-15,-26,-16,0,-1,1,-2
32805514865,1,-3,18,7,-3,-2,0,-1
32805528230,-5,-4,-3,-4,0,-2,0,0
32805528230,7,9,54,26,8,2,-1,1
32805529737,-2,8,-3,0,-5,-4,-1,-4
32805529737,1,-2,-3,-6,1,0,-1,0
32805550673,-1,4,-5,-7,-3,0,0,1
32805550673,-2,-3,-5,-5,0,1,1,0
32805552318,-1,-5,8,6,0,2,-1,1
32805552318,-2,-5,-18,-8,1,-1,-1,0
32805564382,0,3,7,-6,0,-2,-2,-1
32805564382,0,-4,-2,26,1,-2,0,-1
32805573273,0,3,6,-56,-1,2,0,2
32805573273,-2,0,-21,-38,-5,1,0,-2
32805595576,0,-7,5,79,10,2,1,1
32805595576,0,-1,0,-15,-6,-1,-1,1
32805597219,-2,-3,-13,27,1,1,1,0
32805597219,1,3,2,-29,1,-2,1,0
32805610776,-1,-6,1,-20,-8,0,-1,-1
32805610776,-2,4,6,-25,0,1,0,0
32805612222,0,-2,-3,46,1,0,0,-3
32805612222,0,-2,3,0,2,1,0,-1
32805624484,1,-4,-14,-36,-1,0,0,0
32805624484,-3,8,2,34,-5,-2,-2,-2
32805633258,-2,-9,17,1,1,-2,0,1
32805633258,-3,-11,-1,15,-2,-3,-2,1
32805648299,1,-3,-10,-51,-3,-2,0,-1
32805648299,0,3,-6,0,-1,-1,-1,-3
32805649772,1,6,25,-18,0,-1,-1,0
32805649772,1,-4,-20,60,0,-1,-1,-2
32805670731,-2,-5,-15,-68,-3,0,-2,1
32805670731,0,-5,0,4,-6,-2,0,1
32805672389,1,1,-11,41,4,0,0,-1
32805672389,-4,5,18,-24,-3,0,0,0
32805684466,1,-10,-14,-4,0,-1,-1,0
32805684466,1,-2,-4,23,1,1,0,-1
32805693255,-2,-5,-10,-7,-4,-1,0,0
32805693255,2,6,4,-10,0,-1,1,0
32805708237,1,1,4,9,0,0,0,-1
32805708237,-3,-1,-3,20,-1,-1,-3,-1
32805709749,0,-13,4,-36,-3,-1,0,0
32805709749,2,3,1,-10,-1,-1,-2,0
32805730755,-1,-2,10,24,0,-2,0,-1
32805730755,-2,2,6,-17,-1,1,-1,1
32805732270,-2,-3,2,7,0,0,-3,-1
32805732270,0,4,-2,5,0,1,0,0
32805753328,1,1,14,23,-2,0,-2,-1
32805753328,1,-6,-17,-28,-3,-3,0,-1
32805754715,4,6,-6,-11,-2,1,2,1
32805754715,-1,-5,6,19,1,-1,0,0
32805768273,0,5,-13,-2,-1,-1,2,-1
32805768273,-2,-5,8,-7,2,1,0,-2
32805769785,0,5,-5,-17,1,-1,0,-1
32805769785,0,-3,9,33,-3,-1,1,0
32805790748,0,0,-16,-9,0,1,0,-1
32805790748,1,-2,36,15,-3,0,-1,0
32805792291,-2,10,7,-5,-4,-1,0,-1
32805792291,-2,-7,3,-4,0,-2,-1,-1
32805813310,-1,-1,-8,9,1,0,-1,0
32805813310,-1,-4,-12,-22,1,-2,1,-2
32805814801,-1,7,15,11,4,1,-3,-1
32805814801,-2,-1,-17,14,2,-1,-2,-4
32805828316,2,8,15,-30,0,0,0,-2
32805828316,-1,-14,-7,25,-5,-2,-2,1
32805829716,-4,-3,-32,-33,-2,-1,0,-2
32805829716,-2,4,-8,-11,-1,-2,1,1
32805850648,-4,-4,7,17,0,-1,-1,0
32805850648,0,4,13,-14,1,0,-1,-1
32805852354,-1,-14,-33,-6,-1,-2,-1,0
32805852354,12,-2,16,20,0,1,0,-1
32805873184,-13,9,2,-24,-3,-3,-5,-1
32805873184,-5,0,-18,-49,-1,0,1,4
32805874847,3,2,34,52,-1,0,-2,-1
32805874847,-1,11,-51,12,-2,-1,-1,0
32805888264,1,-9,14,10,1,-3,-6,-2
32805888264,3,1,3,12,2,5,7,0
32805889768,-3,-2,1,-41,1,-1,6,3
32805889768,-4,-2,-18,-32,-2,-7,-7,-4
32805910725,11,-6,3,38,2,16,1,2
32805910725,-5,6,-10,-19,3,-2,0,4
32805912445,0,-7,21,15,-4,-3,2,0
32805912445,-5,1,8,8,-1,-8,-15,-2
32805933306,1,-2,-7,0,-1,-11,9,-3
32805933306,7,-3,6,9,1,11,7,0
32805934768,-4,-1,-39,-20,1,3,-8,-1
32805934768,3,-6,1,26,0,8,11,0
32805947613,-5,7,16,-25,-4,-15,-36,-2
32805947613,1,0,0,16,0,-7,-7,-2
32805954375,-4,4,11,27,-3,3,8,0
32805954375,-3,-7,-4,-40,-4,-1,-5,2
32805970661,2,8,18,42,2,-7,11,0
32805970661,-1,-8,-20,-80,-2,3,2,-2
32805972317,2,5,9,27,1,-1,-12,1
32805972317,-1,-7,7,8,0,1,6,-2
32805993284,-3,2,-13,-19,-1,-5,-3,1
32805993284,0,-3,8,34,-3,3,6,-3
32805994735,2,1,-5,-47,-1,-3,2,-1
32805994735,-2,2,12,-2,0,-3,9,0
32806007423,2,0,-17,53,5,8,10,2
32806007423,-3,4,-19,-32,-10,-6,-11,-1
32806014287,-3,-12,37,46,2,3,0,-3
32806014287,-3,0,0,-11,3,-5,1,0
32806030604,-1,-6,14,-17,-2,-8,-11,-1
32806030604,4,2,-6,74,5,7,-1,-1
32806032280,2,20,0,-50,-2,2,3,-2
32806032280,-4,-16,-14,-2,-4,-3,-6,-1
32806053223,-1,3,-21,-42,-4,3,11,-1
32806053223,-5,-4,7,41,1,-4,-2,-1
32806054747,-2,-7,-9,-5,-1,-6,-4,1
32806054747,2,3,25,-15,6,5,0,3
32806067524,-1,-2,-38,12,-7,4,4,3
32806067524,-2,-9,-11,-91,0,-3,0,3
32806074411,0,-3,28,95,2,-3,-3,-1
32806074411,3,1,-13,-104,-15,3,2,3
32806090711,-1,3,32,19,11,4,3,-1
32806090711,0,-1,-26,-34,-4,-3,-1,0
32806092314,0,-4,-31,10,1,-3,-2,-1
32806092314,2,9,20,34,1,2,1,-3
32806113209,-2,0,-5,-25,-4,-1,1,0
32806113209,-4,-11,2,9,-2,-2,-3,-2
32806114748,2,-2,-4,-39,-2,0,-1,1
32806114748,0,2,2,42,3,-1,-2,-1
32806127549,3,3,8,-10,-3,1,-1,-2
32806127549,-1,6,-9,15,0,-3,-5,-2
32806134417,-3,1,3,0,-3,2,1,0
32806134417,0,-4,10,1,-2,2,-3,-2
32806150856,-2,-10,-12,13,1,3,-2,3
32806150856,-2,2,15,7,-5,-5,-4,2
32806152387,0,-1,-10,-4,2,1,0,16
32806152387,-2,-1,-16,-7,-4,-1,-1,20
32806173281,0,5,6,-1,3,-1,0,9
32806173281,-2,-10,1,8,-4,-2,1,0
32806174803,0,4,-7,-29,-1,2,1,-9
32806174803,1,0,2,13,4,3,-1,-7
32806187568,-1,-7,10,12,-4,1,2,-5
32806187568,1,9,7,-1,1,3,-4,-4
32806194497,-3,-19,-7,-7,1,0,0,-6
32806194497,-3,0,5,9,-3,-6,-2,-7
32806210662,0,-1,-3,-8,-2,13,3,-5
32806210662,4,5,2,12,3,3,6,1
32806212309,1,5,18,-12,-2,0,-1,-3
32806212309,0,0,-20,7,-1,-1,-4,-6
32806233205,-6,-15,-14,-15,-5,-16,1,-10
32806233205,0,2,-6,-3,3,12,8,0
32806234797,1,5,6,13,2,5,-4,-3
32806234797,1,2,18,7,5,10,0,-3
32806246869,-3,-7,-36,10,4,3,-9,-2
32806246869,-3,-5,5,-19,-4,-4,-3,0
32806255770,1,1,-6,-45,2,4,0,1
32806255770,6,2,7,60,8,-24,17,-2
32806270779,-20,1,-18,-13,10,30,-1,11
32806270779,1,1,19,-22,4,-7,-5,2
32806272388,1,0,-14,25,-3,-2,1,3
32806272388,-2,0,8,-38,-15,-1,-7,-2
32806293209,3,-7,25,32,-10,-13,-1,-5
32806293209,5,2,1,20,-3,-6,5,-2
32806294755,-3,11,-17,-31,-6,-11,-6,-3
32806294755,-5,-23,-11,5,0,0,-2,-2
32806306846,8,10,21,-14,-1,-10,7,2
32806306846,-3,-3,-4,0,-3,-4,0,-2
32806315770,3,-8,5,13,-5,-4,21,-2
32806315770,-2,6,-4,21,5,2,24,0
32806330713,-1,-1,-4,28,-4,-1,16,-5
32806330713,2,2,8,-34,-4,-2,0,-1
32806332414,-4,-2,-13,22,0,0,-13,-3
32806332414,-3,-2,10,-16,-1,8,-18,-2
32806353151,3,0,-32,-21,-4,-3,-22,-3
32806353151,-3,2,29,14,6,-5,-16,-2
32806354745,-2,-3,-12,64,7,-4,-10,0
32806354745,-1,8,1,12,-7,-3,-8,1
32806366746,5,0,-13,-59,-7,-6,0,1
32806366746,-1,-15,-29,-38,-11,-1,-2,-3
32806375743,9,3,28,5,-2,1,3,3
32806375743,-3,-1,-26,-8,3,-1,-13,2
32806390704,2,5,29,74,3,7,-14,1
32806390704,-8,-22,-13,-4,-1,3,-4,-1
32806392406,2,-2,2,-18,-2,3,0,1
32806392406,-2,2,-2,-15,1,4,0,-1
32806413273,-1,-1,7,-14,-3,0,6,0
32806413273,3,7,1,23,6,4,1,0
32806414795,-4,0,11,5,4,0,-4,-1
32806414795,-3,-8,-41,-66,-4,0,4,-6
32806426973,0,2,-2,0,5,-2,5,-2
32806426973,-3,1,8,33,4,-3,3,0
32806435763,-2,-2,3,-12,-1,-6,5,-2
32806435763,2,1,-14,-15,-3,-1,1,-1
32806450721,0,0,15,3,3,-5,3,-1
32806450721,0,7,-6,15,-1,3,7,0
32806452319,-3,11,11,-23,-7,0,13,-4
32806452319,2,-9,12,23,-3,-2,12,0
32806473137,3,2,2,-22,-4,-2,7,-1
32806473137,-3,10,-20,-2,-4,-2,1,0
32806474783,-7,-31,-13,-18,-2,0,-9,1
32806474783,-4,5,6,11,1,7,-5,2
32806486887,-3,-2,-1,-17,-4,0,-9,-2
32806486887,3,8,17,14,4,18,-4,4
32806495786,-1,0,-46,-27,-5,2,-9,0
32806495786,-2,3,40,20,-2,-3,-11,2
32806510672,-3,-7,-9,8,3,-7,-9,-1
32806510672,1,4,-5,0,4,-7,-1,0
32806512311,-1,5,2,15,6,-8,-6,-2
32806512311,6,-5,0,-40,4,-2,1,0
32806533106,1,1,1,30,7,-2,0,-2
32806533106,-1,0,8,-43,-5,-7,0,0
32806534764,-1,-6,0,-1,-1,-2,-3,-1
32806534764,0,0,6,6,3,-7,-4,-1
32806546896,2,-1,-1,35,3,-4,2,0
32806546896,-3,-7,-13,-22,2,-3,4,-4
32806555773,-1,1,-8,-37,-4,1,4,0
32806555773,2,9,4,-23,2,4,-6,-3
32806570688,-1,-12,-20,-21,-4,-2,3,-5
32806570688,-1,-2,7,44,-2,-1,-4,-8
32806572440,10,5,18,12,-2,-3,0,-9
32806572440,-21,-3,-13,12,0,6,3,-6
32806593201,-1,5,18,-20,-6,6,0,-3
32806593201,0,-2,-11,-5,-3,0,-11,-4
32806594764,0,4,-24,8,0,0,-6,0
32806594764,2,-20,3,-3,0,-2,5,-2
32806606957,-1,2,6,-5,1,-6,2,0
32806606957,0,-2,13,25,-6,0,6,0
32806615794,0,4,2,12,-1,6,6,2
32806615794,5,1,-7,-6,3,-11,-12,0
32806630713,-1,-2,4,-20,-16,-11,-6,-1
32806630713,4,3,-5,9,3,-4,4,0
32806632332,-5,-5,4,16,-3,3,3,2
32806632332,1,3,8,-9,-1,1,-5,-1
32806653269,4,0,-22,22,4,1,17,5
32806653269,-2,-3,0,-48,-5,10,-2,16
32806654788,1,7,13,13,2,1,-5,20
32806654788,-5,1,3,18,-6,2,2,17
32806666957,-4,-7,-24,0,5,-3,-10,5
32806666957,0,12,30,14,-7,-7,-5,-2
32806675817,-6,-17,-30,-26,-6,-4,1,12
32806675817,3,7,14,15,-4,0,-1,5
32806690631,-1,0,10,2,-3,1,-5,0
32806690631,-1,-7,-10,-4,-3,-7,2,-12
32806692312,2,7,14,4,6,-3,-2,-14
32806692312,1,1,-10,7,-6,-1,2,-6
32806713309,-2,-8,-7,-6,8,5,-2,-4
32806713309,0,-1,5,-6,6,0,0,-4
32806714842,-1,1,-12,6,3,-3,2,-12
32806714842,3,-1,-2,-5,-1,-1,3,-12
32806735781,-2,2,12,-7,-2,2,3,-13
32806735781,0,1,-16,-7,0,-1,1,-7
32806737361,0,0,18,12,-1,1,4,-4
32806737361,-1,-6,-17,-11,5,1,2,-3
32806750811,4,3,7,4,-1,0,-1,1
32806750811,-3,-3,5,14,-1,-3,-3,0
32806752339,-2,-2,-8,-14,-2,-4,-1,-3
32806752339,-2,2,9,8,4,2,2,0
32806773325,-1,1,-2,-2,3,-2,-2,3
32806773325,-1,-2,1,-10,1,-2,-1,1
32806774792,2,5,1,11,3,-1,2,1
32806774792,-1,-7,0,0,-2,-1,1,2
32806795813,-6,-14,2,2,-2,3,-2,-1
32806795813,1,3,-10,3,-1,3,-1,4
32806797326,0,0,1,-4,-1,1,-4,-4
32806797326,2,2,-5,-6,-2,6,-2,-2
32806810797,0,12,28,7,-2,0,2,3
32806810797,0,-10,-29,-4,-2,-1,3,-24
32806812358,-1,-2,9,-10,-6,-4,-14,-7
32806812358,-1,-2,-16,5,-2,-16,8,1
32806833283,12,-1,2,-4,2,-4,20,18
32806833283,-8,-2,-11,2,1,7,-30,9
32806834789,-3,2,2,-4,2,2,12,9
32806834789,4,3,15,-3,-4,-10,-14,-3
32806855720,8,14,-7,-5,-3,-7,-14,-4
32806855720,-2,-6,13,19,2,3,26,8
32806857327,-1,-1,-16,-16,3,2,-5,-7
32806857327,6,4,-3,3,-4,-24,34,1
32806870173,1,11,-10,-4,6,56,-73,14
32806870173,12,8,38,17,0,-3,21,-15
32806876879,13,-17,-32,-11,-4,1,18,9
32806876879,13,6,-2,-11,-7,-12,41,-9
32806893305,-2,-23,1,6,-3,-14,62,2
32806893305,-73,-8,21,2,10,23,-27,20
32806894772,-1,-6,2,12,3,5,11,-1
32806894772,-6,-5,-15,-7,1,7,-22,-23
32806915772,-11,1,9,6,-3,-27,-19,-19
32806915772,39,-4,-14,-1,-5,1,34,-6
32806917274,-21,14,10,5,-1,-2,2,-6
32806917274,-14,-22,14,11,0,-3,-21,12
32806930145,5,17,-20,-19,-6,-3,9,-7
32806930145,19,-16,-8,2,14,-10,-7,2
32806936919,4,4,21,8,-1,-8,-19,0
32806936919,7,2,-5,3,-2,5,0,6
32806953325,-11,-2,7,-18,-2,-2,4,2
32806953325,4,7,-18,9,-7,-7,1,0
32806954969,1,0,-14,-19,-4,-9,2,5
32806954969,-14,-5,10,-7,0,14,-10,1
32806975497,3,-10,22,7,-2,2,5,-7
32806975497,-6,6,-17,-7,-4,-9,-10,4
32806981902,1,-5,-2,2,0,5,-5,-3
32806981902,6,8,14,14,4,7,-5,2
32806990120,-1,2,-30,3,2,-2,-9,0
32806990120,2,1,-66,-6,-10,-6,-2,0
32806996852,-5,-16,-60,-2,5,1,-3,2
32806996852,-4,-1,-52,-41,-3,3,-3,0
32807013065,-1,3,20,28,0,-6,7,2
32807013065,-10,-8,2,-23,-8,-6,-1,-2
32807014794,4,10,26,-16,-7,0,1,-4
32807014794,-3,1,31,31,-2,0,-4,5
32807035769,-4,-8,11,-46,5,-2,-6,-3
32807035769,5,5,35,45,-1,-5,-6,-3
32807037264,-1,1,17,-15,3,-2,-6,-2
32807037264,4,0,32,16,0,5,0,-2
32807050074,-5,-5,0,-15,-3,-4,-4,-3
32807050074,4,6,4,-2,-1,1,5,0
32807056815,2,0,30,9,0,2,-18,2
32807056815,8,5,-15,-7,4,10,27,4
32807073284,-28,-6,-13,6,-2,-11,-3,-4
32807073284,6,2,10,-5,6,4,-5,6
32807074879,0,1,-10,11,-6,-16,-37,3
32807074879,-3,0,6,0,3,24,4,-9
32807095634,5,15,0,4,-2,-15,-22,14
32807095634,15,-31,-4,-11,-1,-7,-18,-3
32807097284,13,6,17,12,-3,-14,-57,2
32807097284,-8,2,-10,8,7,33,23,-7
32807110020,-23,-5,-19,-5,0,4,13,-5
32807110020,0,33,2,-15,-3,-6,2,-3
32807116802,-4,-29,9,0,0,-3,-7,2
32807116802,-13,0,-4,-14,-5,-22,-20,0
32807133109,13,-9,-5,10,-3,0,-1,-6
32807133109,8,9,-4,1,3,17,45,12
32807134875,-12,-3,-5,-3,2,6,-12,-3
32807134875,9,11,-26,-13,-1,-7,-11,11
32807155701,7,-1,-13,-1,-4,-10,-13,-2
32807155701,-10,-16,19,-25,-4,-22,-23,-12
32807157270,1,24,33,23,3,17,42,-9
32807157270,-5,-51,-8,-1,3,-13,-2,-1
32807170163,10,18,74,37,2,8,-4,-9
32807170163,-7,-17,-72,-47,-8,-12,20,-9
32807176917,-4,32,7,22,1,7,22,-10
32807176917,5,15,-10,0,-4,-12,-10,-8
32807193290,6,-12,-62,-19,-5,-13,-17,1
32807193290,-30,10,24,20,-4,-28,2,-17
32807194938,5,-1,-25,-11,-6,12,-7,3
32807194938,6,9,-9,4,-7,-8,-29,3
32807215809,48,-34,2,-4,-2,-18,35,-9
32807215809,-47,25,15,8,3,14,-107,-1
32807223383,5,7,-12,-16,-5,-35,29,-13
32807223383,-32,-12,23,6,2,34,-4,12
32807238195,-4,10,-11,-16,-6,-25,-33,-9
32807238195,30,-18,22,7,5,16,15,33
32807239787,50,4,13,-17,2,19,34,-12
32807239787,-26,4,24,8,2,-23,-9,4
32807260749,1,6,-16,7,7,12,26,0
32807260749,11,1,5,3,5,9,9,3
32807262360,-12,-12,-32,-5,-3,-8,-6,3
32807262360,16,13,16,21,2,-7,-2,-4
32807276123,-17,-9,-6,-9,-2,25,-1,8
32807276123,0,2,20,13,-2,-2,28,-6
32807277728,-22,-16,-5,-27,-3,0,0,5
32807277728,12,10,-38,11,0,1,14,-2
32807289447,-5,-8,-20,7,2,6,14,5
32807289447,0,13,47,8,-5,5,-5,0
32807313980,-5,-6,10,8,1,3,13,3
32807313980,2,-1,-2,-18,1,-1,1,-1
32807314679,-6,13,9,8,0,9,-4,0
32807314679,2,-9,-45,-5,5,7,-3,-4
32807316246,-8,-4,-7,72,3,8,-9,2
32807316246,5,2,50,35,3,-6,-7,-6
32807335654,-12,-7,-18,-6,-6,0,-16,-4
32807335654,6,-1,27,27,3,0,-3,1
32807337232,-7,-8,-19,-123,-9,-12,-11,0
32807337232,2,0,7,75,5,-3,-17,-3
32807349476,-2,1,-5,13,4,1,-6,0
32807349476,5,8,-2,0,0,1,-5,2
32807365831,0,16,9,-22,4,-40,-6,2
32807365831,-3,-26,-10,23,-1,-28,-2,-1
32807374519,1,9,-4,-41,4,-5,3,3
32807374519,4,-4,-4,-14,3,-4,10,-5
32807379376,-13,-5,-3,52,10,24,21,3
32807379376,6,12,-3,-56,-9,3,-11,5
32807395671,-4,-2,13,-50,-1,6,19,1
32807395671,0,-4,-13,68,2,25,-11,11
32807397298,33,1,4,-68,-1,21,-22,-13
32807397298,18,3,6,51,-9,-12,-16,-3
32807409246,-23,-7,-6,-10,-1,20,-54,-4
32807409246,-8,-1,3,9,2,1,14,2
32807418280,0,-3,17,27,0,1,2,5
32807418280,3,3,-22,-59,9,6,3,-11
32807433181,17,-8,-14,-2,-6,2,56,22
32807433181,0,6,25,-21,-5,-15,11,-3
32807434781,-24,13,-6,54,5,10,15,2
32807434781,-8,-27,15,-23,-1,-4,13,-4
32807455775,-16,-2,-5,28,-1,-14,-7,-3
32807455775,3,-7,-22,-23,0,30,32,7
32807457233,16,12,-22,39,-4,4,0,1
32807457233,-44,0,3,-53,-4,2,17,3
32807469324,-4,1,14,-5,-3,-1,-4,-8
32807469324,0,-9,-10,7,2,-17,-38,-5
32807478277,-2,-5,-8,-21,-2,-4,-1,2
32807478277,11,3,-2,31,0,6,2,2
32807493342,1,10,13,18,3,3,-6,1
32807493342,-1,-1,-7,-17,-4,-13,-5,-7
32807494800,-9,-9,-6,-7,0,-4,5,4
32807494800,3,9,-7,-3,-2,2,-7,3
32807515030,3,-4,6,0,1,0,3,0
32807515030,3,12,18,24,-3,-5,5,-3
32807515779,-3,-13,3,17,0,-5,-9,-4
32807515779,4,-1,-17,-17,-6,7,4,-6
32807537448,10,15,4,8,24,3,-3,-3
32807537448,-8,-26,-27,-34,-2,-5,-1,4
32807538243,-6,-11,2,1,-1,2,-4,-1
32807538243,4,15,34,19,-1,-2,-1,-1
32807552680,1,-12,0,2,-8,-6,4,-6
32807552680,4,11,3,0,-3,-8,-5,3
32807553269,-6,3,1,5,0,-13,-1,1
32807553269,8,2,-3,-45,-10,-14,2,-11
32807575059,-4,-18,-2,47,9,-8,2,5
32807575059,-2,10,12,-4,2,-7,4,3
32807575761,-3,-19,-13,-4,-5,-3,-3,-22
32807575761,4,16,-21,-5,-3,3,-4,10
32807597576,-1,-5,3,-11,-2,6,-3,4
32807597576,-1,-8,-17,-9,-7,2,-3,-6
32807598290,-3,6,28,8,-4,7,2,5
32807598290,-1,-7,-15,1,13,10,3,6
32807612471,4,11,14,1,-2,7,0,-6
32807612471,-1,5,-5,-3,0,7,2,5
32807613252,-1,-16,6,-4,-4,5,0,4
32807613252,1,-3,-16,-21,-2,5,0,-5
32807635106,-2,-1,-12,5,-9,1,-3,1
32807635106,-1,4,4,2,0,3,-2,-10
32807635754,0,3,2,-9,-4,3,2,5
32807635754,1,-2,-5,9,5,5,1,0
32807657498,-2,2,19,-5,-7,-1,1,0
32807657498,-1,0,10,3,0,-1,-2,-3
32807658244,-2,2,11,3,5,-3,0,1
32807658244,-3,-10,-5,-5,6,2,-2,2
32807672568,1,7,2,-1,-9,0,-4,-1
32807672568,-2,-1,-9,0,-3,1,-5,-2
32807673293,-1,-2,2,-8,0,1,-2,4
32807673293,-1,1,13,15,-3,-1,-2,-3
32807695018,0,4,-5,2,2,4,-1,0
32807695018,-2,-12,-17,-11,3,-1,-1,-5
32807695778,-3,7,-4,0,-3,-3,-1,1
32807695778,-1,-7,-6,35,0,-2,1,0
32807717448,-1,0,14,-7,0,-2,0,-2
32807717448,-2,-1,9,-6,1,-2,1,2
32807718245,11,-1,-6,-10,-2,0,1,1
32807718245,-25,-3,-16,-43,1,-2,-1,1
32807732481,-6,9,4,86,-1,-5,-2,-2
32807732481,3,-7,-3,-41,-2,-2,-2,-2
32807733244,-3,2,-8,-46,5,-8,-10,1
32807733244,-3,-2,9,25,-13,-9,6,0
32807755200,1,-1,-37,-6,2,-5,-5,-4
32807755200,6,3,-1,14,-5,-23,-12,-10
32807755812,2,-4,0,2,1,31,-5,20
32807755812,18,-6,12,-39,1,1,-2,-4
32807777482,-8,2,-27,-5,-7,-24,3,-2
32807777482,-8,-1,-9,60,-1,24,-37,-12
32807778247,12,1,1,-23,-8,-4,0,-2
32807778247,14,0,5,74,2,-17,-6,-2
32807792659,8,3,5,-61,6,32,-7,-5
32807792659,-2,0,16,-36,0,-20,9,6
32807793311,-22,-1,-28,-27,4,-22,-6,-15
32807793311,-15,2,8,79,2,11,-10,9
32807815635,-1,3,5,-16,-2,-25,-3,-5
32807815635,-10,-7,-16,24,2,23,29,2
32807816264,1,-10,18,33,-6,0,0,-5
32807816264,8,4,-2,-41,1,-9,-1,0
32807837606,-1,-1,15,-5,-3,0,3,5
32807837606,4,9,-2,-19,3,-3,6,4
32807838299,1,-5,-36,-31,-1,0,6,-3
32807838299,1,5,-2,18,5,0,1,-5
32807852488,-7,-10,22,-1,-2,5,9,3
32807852488,4,0,-2,-43,1,-9,-5,2
32807853339,-1,3,-9,46,-2,-3,20,1
32807853339,-5,-4,-21,8,-2,5,4,3
32807875143,4,3,19,-85,5,2,1,-2
32807875143,2,-3,-5,103,9,-5,5,-5
32807875789,0,6,26,-14,-13,-8,-3,-5
32807875789,0,3,9,-57,-2,4,5,-4
32807897696,4,-3,-29,25,0,-3,5,1
32807897696,-4,-17,-25,-35,-8,-3,-5,-2
32807898292,-1,-1,29,-22,16,5,-1,2
32807898292,1,12,-29,31,-2,2,-3,2
32807911944,-3,-6,42,10,5,0,-5,2
32807911944,4,4,-41,-11,1,1,-1,6
32807920154,2,7,0,29,-4,0,-3,4
32807920154,-3,-2,8,-27,-3,-2,1,1
32807935147,-4,-11,-13,13,-4,-2,-5,1
32807935147,2,14,17,-20,-1,1,-1,1
32807935800,1,-3,2,19,5,-3,-4,0
32807935800,2,6,-16,-31,2,0,-8,-2
32807958333,-1,-3,-28,22,-1,2,-3,-1
32807958333,0,-4,47,1,2,-10,-1,0
32807959024,-1,14,-3,7,2,-16,-4,-3
32807959024,-1,-20,8,-8,0,-7,1,-2
32807972746,-1,0,-12,1,-2,-6,-3,-3
32807972746,1,3,-9,-11,-3,2,1,-4
32807973287,1,2,-5,10,-4,6,-1,-11
32807973287,3,0,12,12,-1,6,-1,-11
32807995031,1,-3,1,1,-4,6,-4,-4
32807995031,-2,-4,-6,-11,-4,5,-6,0
32807995757,-3,-5,3,6,-3,2,-5,5
32807995757,-2,-4,-6,-13,-7,-1,-7,2
32808018135,3,9,1,-4,0,18,4,5
32808018135,-4,1,24,31,0,1,1,4
32808018975,12,-3,-5,-2,3,-2,-8,3
32808018975,-10,2,-11,-9,2,-4,-11,0
32808032548,4,0,9,-5,0,-12,-11,-3
32808032548,1,3,15,10,-2,14,26,2
32808033317,1,-5,-8,-1,1,7,7,1
32808033317,1,-6,-3,-9,1,2,-12,-2
32808055210,-2,6,30,16,-6,-26,-18,-1
32808055210,1,-4,-14,-9,-3,10,-30,-3
32808055824,-1,-3,-18,2,-2,2,9,-1
32808055824,2,15,4,-40,-1,-12,10,-2
32808078428,-4,-34,1,63,-2,20,-1,0
32808078428,-2,4,14,18,-4,-12,9,1
32808079016,12,-5,-27,-42,-3,8,-22,-6
32808079016,-22,4,20,41,-7,-5,-19,9
32808092658,-10,8,13,-31,4,-4,28,-4
32808092658,-5,-9,-15,23,-1,0,1,-2
32808093307,19,-2,14,11,2,-14,-20,15
32808093307,-3,-6,3,13,6,45,52,-1
32808114981,14,13,-13,-12,-4,9,15,-2
32808114981,-20,-14,-3,-7,-1,-32,-51,-4
32808115757,-6,4,4,2,4,16,43,8
32808115757,0,-2,14,-47,-2,-4,-7,1
32808138333,3,2,-14,3,-1,-3,4,4
32808138333,17,22,19,2,2,1,13,-1
32808138964,-19,-19,2,0,-3,-18,-5,-8
32808138964,5,-8,-44,-11,-4,-9,-7,-6
32808152531,-1,1,12,-39,3,-9,-4,-7
32808152531,1,2,-27,-47,-5,-18,7,0
32808153353,-7,7,28,71,-7,-7,-2,-2
32808153353,1,1,5,8,0,-5,2,0
32808175114,2,0,12,24,3,-3,-9,4
32808175114,-2,-9,-13,12,-2,10,4,-1
32808175818,-5,1,-2,-54,-2,2,0,-4
32808175818,6,1,34,22,2,-1,-2,-1
32808198347,-3,1,-15,-10,-2,-2,-2,0
32808198347,0,0,-7,-8,3,7,1,-2
32808198966,-7,0,7,30,0,3,-2,-3
32808198966,3,0,-17,-28,-8,-5,-3,-2
32808212030,-2,3,-10,-20,-1,5,-1,1
32808212030,10,-8,2,26,5,1,0,-3
32808220253,-23,-13,-7,-5,3,3,-1,1
32808220253,-1,-1,-4,-16,2,-1,8,1
32808235091,-4,-4,-4,34,-5,2,-8,-2
32808235091,0,8,-10,-23,-3,-4,6,2
32808235825,3,5,13,6,-7,3,1,-1
32808235825,1,-7,-18,-7,0,-1,-4,1
32808258370,0,1,4,5,-2,2,0,-3
32808258370,1,-1,-9,-12,-3,-2,-1,0
32808259034,1,4,7,-50,4,-5,-1,-4
32808259034,-4,0,-23,61,3,-5,-9,0
32808272021,9,0,36,12,-7,-7,11,-2
32808272021,-7,0,-7,-24,2,4,7,-1
32808280049,0,-2,-5,-1,0,-3,-2,-2
32808280049,-3,-2,-7,-5,2,1,-2,-1
32808295059,4,2,2,1,6,-4,-11,0
32808295059,-2,-1,-28,-39,-9,-4,-2,-3
32808295924,2,-5,7,14,0,2,1,-1
32808295924,-1,6,0,-10,-4,-7,0,-1
32808318306,-7,-29,-6,-1,-2,-22,-15,-3
32808318306,5,4,7,5,1,10,2,2
32808319014,-17,3,-6,9,1,-2,-7,-3
32808319014,4,0,-35,-17,-2,-8,5,1
32808331880,1,10,26,-6,0,12,-12,5
32808331880,1,-4,15,28,-2,-7,-4,-3
32808340216,4,5,-17,-49,-4,-21,9,-3
32808340216,1,8,49,73,-2,6,1,-2
32808355151,28,-15,-47,-68,2,17,-10,2
32808355151,-17,-3,0,77,0,9,18,-1
32808355781,3,14,27,-6,-10,-8,-16,-1
32808355781,1,-11,7,-24,2,1,-6,-5
32808378439,-5,15,7,-11,0,-8,3,-1
32808378439,2,-11,-28,-9,2,3,-8,0
32808379013,6,-3,-5,6,3,4,0,-1
32808379013,-1,0,21,-6,0,3,-3,0
32808391981,-7,8,-12,26,-6,1,7,-3
32808391981,2,6,-1,-33,2,-6,-2,0
32808400078,-3,-1,3,21,-4,2,1,0
32808400078,1,-8,6,-19,0,0,4,-2
32808415215,-4,7,-27,5,-5,-2,3,1
32808415215,-4,2,40,12,-3,0,-1,-3
32808415846,5,-18,-24,-13,-1,2,-3,0
32808415846,4,8,0,-2,-1,3,-3,1
32808438354,-11,-11,-10,-8,-5,-4,3,-3
32808438354,-2,-4,-9,-15,2,1,-3,0
32808439002,4,6,-1,29,3,5,-2,1
32808439002,-1,-1,-1,3,3,-5,-3,-1
32808451876,-4,13,5,14,5,-3,4,0
32808451876,4,-9,9,-4,4,-1,-2,-1
32808459983,2,4,-18,-35,-16,-3,-2,-4
32808459983,-4,-8,-13,-1,6,3,3,2
32808475186,0,12,31,43,-1,-3,0,-1
32808475186,-3,5,11,-70,-9,2,-1,-2
32808475807,4,-13,0,111,7,-1,1,-1
32808475807,8,5,6,46,-1,3,0,1
32808498434,0,-9,-13,-75,-9,1,3,1
32808498434,-3,5,5,102,-2,-3,-8,-3
32808499024,-2,7,-2,-40,-2,1,7,1
32808499024,2,6,17,24,2,-10,-16,-3
32808512004,-4,-12,-40,1,1,3,18,-4
32808512004,5,2,9,-24,2,10,10,12
32808520199,-7,8,12,-9,2,-10,-2,-21
32808520199,-4,-8,-3,-16,-1,2,-13,-5
32808535233,-4,1,14,7,3,-3,-7,0
32808535233,2,-3,-3,-40,-4,-14,-21,-6
32808535909,3,3,6,51,7,17,12,3
32808535909,-16,-8,-11,-47,-4,-6,-4,2
32808558362,-3,13,9,-34,-2,-3,30,-10
32808558362,-3,-17,-1,27,-1,2,-14,8
32808559071,0,16,-2,-13,0,-5,-10,4
32808559071,10,-4,17,-3,-2,-2,0,4
32808580794,1,-4,-16,5,8,2,16,-2
32808580794,3,0,-2,14,-1,-7,3,7
32808581547,-5,-5,-19,-37,1,1,-3,-1
32808581547,-6,-1,18,-9,-3,5,6,-2
32808595123,-2,-9,-19,35,-3,-3,-20,3
32808595123,3,0,-6,-21,-5,1,10,-6
32808595817,-1,14,-19,21,-6,3,-4,2
32808595817,0,-17,26,21,4,-1,9,4
32808618360,2,1,17,-3,-2,0,-13,2
32808618360,-5,-2,-35,10,2,1,3,-10
32808619057,-4,-1,25,-15,-4,-1,0,5
32808619057,4,13,-39,-18,-7,-2,1,-2
32808648408,-3,-10,23,5,1,-4,-7,-1
32808648408,-5,3,-6,-1,-1,-1,-1,-2
32808649020,2,-8,6,-7,-1,-2,2,2
32808649020,-1,3,-9,-20,-4,-3,2,-1
32808655027,-3,-2,6,21,4,3,-6,-1
32808655027,3,19,23,10,5,0,6,2
32808655932,0,-27,-16,-45,-6,-2,-2,-1
32808655932,0,-1,-3,15,-1,0,0,-2
32808678317,2,7,-5,17,0,2,-4,5
32808678317,-3,-4,11,8,1,0,0,-2
32808679044,4,7,-4,1,4,2,-2,1
32808679044,-4,5,-31,-18,-3,-4,1,-2
32808700714,-6,-6,0,60,3,-1,-4,0
32808700714,0,4,11,-29,-9,-2,0,-1
32808701498,-3,-7,4,27,-1,0,1,0
32808701498,0,-1,-7,-33,0,1,2,0
32808715175,3,5,-3,76,5,-2,-6,-3
32808715175,1,2,0,-69,-2,2,6,-1
32808715839,-2,11,-18,55,2,1,-2,0
32808715839,-3,-25,6,-59,-6,-2,-2,-4
32808738295,0,3,-3,54,0,-1,-1,4
32808738295,-1,-3,5,46,8,-2,-1,1
32808739087,4,5,28,-85,-7,1,3,2
32808739087,-1,17,3,-49,-1,1,0,-2
32808760814,3,-14,-22,-13,-3,0,-3,-1
32808760814,-7,-12,-5,39,-13,-4,1,-2
32808761518,3,3,7,13,9,-2,-1,1
32808761518,6,1,-14,7,2,1,-9,-1
32808775220,-20,8,-4,-92,-3,-11,4,-2
32808775220,3,0,37,42,-1,4,-1,5
32808775864,-12,-7,-17,9,4,3,35,-6
32808775864,16,-4,-6,10,-1,4,-3,3
32808798366,-29,-5,-17,-18,-6,-27,-43,-7
32808798366,18,13,8,9,8,46,13,4
32808799020,1,-2,17,-13,-4,-3,0,12
32808799020,-8,-2,-23,15,-1,-7,-12,-4
32808820852,14,3,35,-1,5,18,28,3
32808820852,-7,1,-15,-29,-4,-16,-2,7
32808821542,-1,2,18,12,0,5,-9,-17
32808821542,8,-8,-38,2,-2,-2,-7,6
32808835156,6,-1,5,14,-4,-12,-7,11
32808835156,-3,0,-19,-29,2,10,4,-39
32808835818,6,6,-22,-9,1,0,-5,10
32808835818,-11,-2,36,38,2,0,7,-13
32808858453,9,2,-1,-43,-3,8,4,0
32808858453,-4,-7,-12,11,4,-9,1,-2
32808859029,-1,-5,-14,0,-6,-5,-18,2
32808859029,0,10,23,11,-5,1,6,-1
32808880889,4,3,-8,-37,-3,6,6,-4
32808880889,2,-4,21,-34,-1,-9,-6,2
32808881562,-5,-7,-6,91,10,-1,-2,-3
32808881562,-5,0,-11,-76,-3,1,4,7
32808895172,5,-1,-11,-48,-5,4,2,-5
32808895172,-2,0,8,89,11,-6,-6,5
32808895804,-5,-6,-21,-128,-10,-4,-1,-2
32808895804,1,19,10,-22,9,0,4,-2
32808925719,-4,-20,-10,63,1,0,-4,1
32808925719,0,-8,-29,-4,2,2,-1,2
32808926498,4,-1,20,1,4,-7,-19,-5
32808926498,-12,1,26,-50,-4,17,28,15
32808940719,2,12,-7,35,-8,0,0,-6
32808940719,-8,-9,4,3,-7,-38,-27,0
32808941467,2,-1,-13,-6,1,22,-2,1
32808941467,4,2,22,80,1,-2,7,1
32808955136,38,-5,-14,-47,2,7,21,0
32808955136,-35,3,0,-9,-4,-9,23,-6
32808955863,4,-2,24,26,-3,5,-8,24
32808955863,3,-9,-10,-5,-2,-4,-20,-14
32808978285,-1,8,-4,-13,4,-1,-4,-3
32808978285,17,0,-20,-31,-8,-9,-1,-2
32808979019,-4,-4,-2,1,-2,5,11,-2
32808979019,-8,-1,-3,31,1,-2,2,0
32809000771,-4,1,2,-29,1,-1,-11,8
32809000771,1,1,-7,-10,-3,3,-7,-19
32809001524,-7,-11,-22,-10,-1,-6,2,-10
32809001524,3,0,35,47,4,-1,-5,-1
32809015024,-8,3,5,-10,2,-1,1,3
32809015024,-3,0,-15,-51,-2,6,2,9
32809015774,3,5,26,26,-1,-4,2,-2
32809015774,3,1,0,13,-3,-4,-2,-4
32809038401,-5,-14,-4,4,1,0,0,-3
32809038401,2,-4,3,65,5,4,-2,4
32809039026,-2,-2,18,-60,-6,-4,-1,-7
32809039026,-4,-4,-40,4,-7,-6,-5,0
32809060833,-6,16,31,-85,-1,-1,-3,-3
32809060833,3,-30,29,104,8,6,-5,0
32809061570,-2,-1,-19,-104,-19,-7,3,-2
32809061570,-1,2,-14,-69,-3,-1,1,0
32809074574,-1,-1,20,96,3,-1,0,-2
32809074574,5,12,8,-128,-9,-1,-2,3
32809083407,-3,0,0,105,7,-3,0,-2
32809083407,2,-8,-26,-101,-3,0,0,1
32809098267,-4,-2,5,17,3,-3,0,-1
32809098267,11,7,-19,-15,-1,-4,-3,4
32809099830,30,1,5,30,8,2,-5,-1
32809099830,18,7,20,11,-7,-4,7,-2
32809120726,21,-16,-13,17,-1,2,6,5
32809120726,8,10,-14,-29,-6,2,3,1
32809122342,-10,-3,8,-13,0,-2,1,-3
32809122342,-14,1,-9,62,6,-2,-3,-2
32809134371,-14,-2,-5,-29,-2,-4,-3,-1
32809134371,-16,0,5,-24,-1,1,1,1
32809143427,-12,0,-18,24,3,-7,0,-2
32809143427,-13,-8,-3,8,-1,0,-4,-1
32809158291,-18,13,28,-21,-3,2,-2,-1
32809158291,-4,-5,-11,13,2,5,-2,1
32809159854,6,-3,-10,61,-1,1,-1,-2
32809159854,-2,0,0,-82,0,-3,3,0
32809180729,-3,3,-14,11,-4,3,1,0
32809180729,0,4,13,5,1,1,0,0
32809182321,-7,-1,0,-7,0,0,1,-1
32809182321,3,-4,3,46,3,1,-3,0
32809194405,-2,-4,-14,-25,-4,-2,-2,-2
32809194405,5,1,-4,-25,-4,-2,-2,1
32809203414,-2,-2,3,0,1,-4,-2,0
32809203414,0,-1,-4,14,-1,-1,-2,-1
32809218282,-10,0,-3,-11,1,0,-2,-5
32809218282,50,6,-1,49,-4,0,-1,11
32809219862,-70,-18,-20,-93,2,1,0,-18
32809219862,12,2,10,84,2,-1,-4,-4
32809240738,-30,-1,2,-24,-1,-2,0,-1
32809240738,-10,2,10,3,2,0,1,-2
32809242334,24,4,-28,-29,-5,-1,-1,8
32809242334,-5,-3,1,18,0,0,-2,2
32809254375,-3,-6,-6,11,-4,-1,-3,-5
32809254375,0,2,4,-22,-1,-1,-2,-2
32809263412,7,2,7,32,-2,-7,-5,0
32809263412,-7,-4,6,26,0,16,4,-2
32809278248,24,12,-14,-11,-2,-1,4,7
32809278248,-16,-16,24,-47,-3,-3,1,-3
32809279880,14,4,8,26,0,1,-10,3
32809279880,-23,0,-5,5,1,-13,5,-5
32809300744,18,-4,-3,8,2,5,-2,-1
32809300744,-9,5,-9,-1,-1,4,6,-1
32809302371,-3,3,8,29,3,-4,-3,0
32809302371,6,-5,-12,-96,-5,-6,-5,0
32809314435,-1,5,-6,-10,0,-13,11,-3
32809314435,-10,-4,14,57,-3,9,-8,0
32809323425,9,1,8,42,7,1,15,1
32809323425,4,6,15,-1,-7,-1,-5,3
32809338445,5,-3,-11,0,0,1,4,-2
32809338445,-12,1,-31,-38,0,6,2,1
32809339898,12,-7,29,10,1,1,3,-2
32809339898,-17,-3,2,15,-1,4,0,2
32809360934,-7,-6,21,-13,-4,2,-10,-4
32809360934,2,2,-11,29,3,-5,8,1
32809362405,0,8,-33,-24,-7,1,-6,1
32809362405,1,-12,-5,-73,-2,-6,-3,-5
32809374469,4,0,23,90,-1,-6,-14,0
32809374469,-5,-2,2,-48,2,8,6,-2
32809383383,-2,5,-4,-32,-3,-2,2,0
32809383383,7,8,-8,31,4,0,1,0
32809397730,-5,-15,5,-5,-2,0,-7,-2
32809397730,5,8,24,24,1,-4,1,-2
32809404459,-8,-10,-12,-19,-2,-1,1,0
32809404459,4,1,-10,4,-2,0,-5,1
32809420904,2,5,-22,-16,1,5,1,3
32809420904,-4,-2,-23,10,-3,-9,-4,-5
32809422422,0,18,61,-27,-8,1,-4,-1
32809422422,2,-13,-13,38,1,1,0,0
32809443248,-2,-3,-27,-20,3,-1,2,0
32809443248,3,1,17,-18,-6,-4,-3,-1
32809444947,0,8,-13,7,10,0,2,2
32809444947,-2,-2,10,18,-5,-4,0,-2
32809457731,3,2,-11,3,-2,0,1,3
32809457731,-8,-20,-73,-23,12,0,-4,-1
32809464484,2,16,62,23,-3,-2,-1,3
32809464484,-2,9,8,7,-3,-4,-1,-4
32809480835,-1,-5,3,-7,-3,0,1,-2
32809480835,0,0,10,-4,-6,-5,-4,0
32809482529,0,-18,1,4,1,2,2,4
32809482529,1,-1,-32,-17,0,0,0,0
32809503449,-1,18,35,11,0,2,-2,-3
32809503449,0,3,-11,3,-3,-2,-1,2
32809504905,4,-4,-5,-16,-1,0,1,0
32809504905,-4,2,5,10,-7,-3,-3,-1
32809516992,-7,-11,-1,-4,8,1,-3,-6
32809516992,7,14,62,31,5,0,0,-1
32809525967,3,1,-33,-16,-2,-3,-2,-3
32809525967,3,-1,-14,-6,2,2,1,2
32809540812,-1,8,13,26,-3,0,1,1
32809540812,-5,-22,-8,-28,-8,-4,-3,-1
32809542570,0,-5,-13,27,1,1,0,-3
32809542570,1,-10,2,-11,1,-1,1,2
32809563261,0,-1,16,9,1,-1,1,1
32809563261,1,14,13,-7,-3,-3,-2,0
32809564837,-6,-24,-46,-1,-4,-4,0,-2
32809564837,1,2,24,0,2,-1,-1,-1
32809576973,-1,-1,-10,-27,-6,-2,-1,2
32809576973,-1,8,3,25,10,0,-1,-1
32809585982,-4,-3,-9,-6,-1,1,-2,-3
32809585982,0,-1,8,5,3,2,0,0
32809600936,3,0,-29,-19,-2,-1,-1,-1
32809600936,-2,-1,-2,-6,-2,0,1,0
32809602392,-2,-6,-3,-3,3,-2,-2,-1
32809602392,2,8,17,23,-2,0,0,0
32809623414,-1,-2,-6,-15,-6,-2,-1,1
32809623414,-1,-1,-9,23,-3,-2,0,-2
32809624872,10,4,10,-28,1,3,-1,1
32809624872,-30,5,-23,-32,1,1,1,0
32809637716,4,-19,18,8,-5,-3,-2,-4
32809637716,-6,-3,9,78,0,-2,-6,-3
32809644584,-2,8,11,-43,2,1,-4,-1
32809644584,2,0,-8,18,3,1,-3,-4
32809660796,2,-11,-25,-8,-1,1,2,2
32809660796,0,12,15,-16,-1,-3,1,2
32809662352,2,-11,-17,10,-4,-4,1,0
32809662352,7,6,7,-4,2,-1,-1,-1
32809683360,-10,-3,-8,-8,3,0,0,0
32809683360,-1,-8,-26,-25,-3,0,3,0
32809684951,7,4,23,27,-1,-3,5,0
32809684951,2,6,4,-1,-1,1,2,-1
32809697757,0,2,-4,-2,-1,-1,-1,-1
32809697757,0,-1,-7,-20,-1,-1,1,-1
32809704521,-6,4,2,12,-1,-5,-3,-2
32809704521,1,-7,-6,-10,-5,-7,-2,-2
32809720897,1,2,-7,13,-1,-3,0,-1
32809720897,-3,-2,19,-6,3,13,-2,-1
32809722440,-2,2,-1,4,-2,-5,-21,-3
32809722440,15,-1,10,21,4,0,30,5
32809743447,-20,5,-21,-23,1,7,-23,0
32809743447,-4,-16,-16,-35,-5,-26,-5,-8
32809745053,-6,1,14,48,1,19,-3,2
32809745053,-5,1,10,-2,2,4,0,-2
32809758237,8,-1,20,6,-9,-5,-45,-4
32809758237,4,-1,-16,21,-3,-8,28,-3
32809764575,1,12,-7,-41,1,-2,2,-2
32809764575,-15,-31,2,29,2,3,3,0
32809780861,1,6,-14,64,3,-15,5,1
32809780861,-1,-5,-4,-92,-5,2,-14,2
32809782417,2,3,-7,-13,-2,-4,8,-1
32809782417,5,3,17,24,-2,4,-6,-2
32809803430,-3,-2,-6,0,6,-8,13,-3
32809803430,14,-4,-25,15,1,4,-8,0
32809804923,-1,-1,28,-5,-3,4,8,1
32809804923,1,10,-24,-26,0,-5,-10,0
32809817790,2,-5,-10,-45,2,6,10,0
32809817790,0,7,24,41,2,8,1,3
32809824520,-4,0,8,13,0,2,3,-2
32809824520,2,13,-28,-10,-5,-5,-10,-2
32809840888,0,-14,32,-9,3,4,11,0
32809840888,-2,-1,-23,0,3,5,1,1
32809842553,-4,-9,0,-13,-3,-10,-6,-1
32809842553,1,7,-11,-20,5,-1,-4,0
32809863383,5,3,10,-2,-1,3,8,-1
32809863383,1,1,7,97,-1,-4,-7,-1
32809864939,-2,2,-20,-93,-2,0,-6,-2
32809864939,2,-13,23,77,-4,1,8,1
32809877686,6,6,-31,6,1,0,6,0
32809877686,-20,-7,-18,-57,-2,-9,-4,-2
32809884600,-2,4,13,73,0,12,8,2
32809884600,3,0,29,-50,-4,4,-3,1
32809900799,-2,3,-14,24,-2,-3,-1,0
32809900799,4,10,51,2,4,3,-4,0
32809902420,-2,-16,-59,-59,-3,-8,-1,-1
32809902420,1,-1,-9,44,12,-1,-5,-2
32809923237,1,4,43,64,-6,1,5,0
32809923237,-2,8,-14,-24,3,4,1,1
32809924865,-3,-1,-6,70,3,-2,0,-1
32809924865,2,-12,18,-108,-9,-2,-5,-1
32809937766,1,2,-9,46,5,-2,-1,-1
32809937766,-8,-3,-8,-1,-1,2,1,-1
32809944574,9,7,15,13,-2,-6,-13,0
32809944574,-19,-6,-16,13,1,-1,14,0
32809960922,-2,-3,-9,-44,-2,-4,-7,-1
32809960922,-3,9,32,-21,-5,4,10,-2
32809962558,11,-10,-22,6,0,2,51,-2
32809962558,0,6,-4,-14,-5,-17,-12,2
32809983529,1,10,21,-28,-1,15,-5,-6
32809983529,11,-18,-14,22,-2,-6,-2,-2
32809984963,-30,13,3,-4,0,0,0,1
32809984963,-2,-12,23,3,-2,-8,-10,-7
32809997806,12,-2,-54,-29,-1,-2,21,12
32809997806,0,0,11,6,4,11,2,-4
32810004444,9,7,20,34,0,4,-10,-2
32810004444,1,6,9,-19,0,3,-3,0
32810020750,-11,-8,11,6,0,-14,-16,2
32810020750,13,0,-3,-13,-1,7,-1,4
32810022418,-3,-8,-14,-33,0,0,-6,-1
32810022418,3,12,9,50,-1,-1,0,1
32810043361,7,6,21,-10,0,0,4,-6
32810043361,-5,-5,-2,-12,1,-6,-2,-3
32810045029,-3,-7,-13,-20,-1,-2,-7,0
32810045029,2,-3,-9,24,-3,4,-2,0
32810057001,-5,-2,-36,-95,5,6,2,-1
32810057001,-4,2,11,18,-14,-3,-4,0
32810065994,-4,-3,-9,76,2,-7,-11,1
32810065994,8,1,12,12,4,5,0,0
32810080889,-7,-11,-7,-66,-13,-2,1,-6
32810080889,4,13,4,75,1,-5,0,1
32810082558,5,6,8,-16,-3,-4,-1,-3
32810082558,-10,-7,-20,-37,1,5,1,-3
32810103392,6,-8,2,18,-1,-3,-8,-1
32810103392,7,-15,-25,-75,6,-6,-2,4
32810104869,-3,1,10,48,-6,9,-13,6
32810104869,-9,-4,-28,-11,1,4,25,-16
32810116929,-1,4,10,9,1,6,0,-5
32810116929,7,2,-3,-1,-6,-35,-26,13
32810126048,-6,-7,-3,-10,8,46,50,-9
32810126048,11,5,2,0,-3,-4,-13,6
32810140976,-20,9,6,23,0,3,17,-2
32810140976,1,-10,2,20,-1,-4,-25,-6
32810142569,0,-7,3,-35,0,-10,-10,3
32810142569,-6,1,-13,-2,-3,-10,-11,0
32810163335,5,5,12,25,1,19,1,-2
32810163335,-5,1,-1,-5,1,3,3,1
32810164964,-4,-12,-7,-22,-2,-14,-10,3
32810164964,10,0,9,10,1,5,1,-3
32810177104,3,-3,1,29,1,-12,-8,10
32810177104,-8,11,-13,-26,0,7,14,-3
32810185929,7,-1,24,28,-3,-6,-3,-4
32810185929,1,-5,-20,-10,-1,-1,3,4
32810200959,-2,-3,10,-8,1,-8,-3,-2
32810200959,-7,-1,10,15,0,7,6,-2
32810202398,1,5,10,-45,-2,-10,-7,-1
32810202398,-3,-5,-5,29,-4,-2,-7,-1
32810223579,-3,-6,-6,2,0,0,1,0
32810223579,3,4,19,21,1,7,6,-4
32810224973,6,3,-19,-9,12,-7,-8,2
32810224973,-1,1,9,35,-14,-1,0,-1
32810237151,0,-8,-9,-52,6,2,-1,-2
32810237151,-2,-9,18,118,-14,-4,2,-2
32810245946,-2,8,-3,-33,0,-7,-2,-2
32810245946,-2,2,-1,51,5,3,-2,-1
32810260964,1,2,4,10,0,-2,0,1
32810260964,1,5,-1,-36,8,4,0,0
32810262558,-8,-11,-12,-39,-7,-1,-4,-1
32810262558,5,-4,-2,-31,-3,0,-1,-1
32810283351,0,2,6,26,-2,-2,-4,-2
32810283351,-1,0,-22,-30,7,3,3,-2
32810284931,0,6,13,44,-1,-2,-2,1
32810284931,8,-3,-25,-91,5,0,0,-1
32810296886,-1,2,26,102,-6,-7,0,-2
32810296886,-3,-3,-19,5,6,4,-1,-2
32810305936,-2,0,7,-32,-19,-6,-1,-2
32810305936,-4,0,5,13,9,-1,-1,2
32810320813,-2,-4,-10,-67,-3,-1,-1,0
32810320813,-1,-1,-1,-23,-5,-1,3,-2
32810322478,0,1,-8,26,8,-2,-4,-1
32810322478,-4,-2,5,-6,-2,-1,-2,0
32810343307,1,0,0,3,-2,2,-1,-1
32810343307,-2,-3,1,-16,-3,-1,0,-1
32810344947,0,-4,-4,-12,-1,-1,-1,-1
32810344947,-2,4,4,-2,-4,-2,-1,0
32810356988,-1,1,10,17,0,-1,1,1
32810356988,-1,1,-16,-34,-1,0,0,2
32810366032,3,3,-2,14,0,-1,0,0
32810366032,0,-3,18,15,2,0,1,-2
32810380886,1,2,-1,-14,-2,-2,0,-2
32810380886,-2,-1,-2,-7,-1,0,1,-2
32810382439,0,3,-2,36,2,0,0,-1
32810382439,-2,-2,-9,-5,3,1,0,-2
32810403361,-1,1,10,16,0,0,-3,0
32810403361,-1,-2,-10,-56,-8,-3,1,-1
32810404965,3,-2,4,24,3,-2,-3,-2
32810404965,-11,2,-3,-10,2,-1,-1,0
32810427225,6,-9,-9,3,1,0,0,-1
32810427225,0,0,0,10,2,0,0,-1
32810428832,-2,0,0,-6,-1,-1,-1,1
32810428832,2,1,-1,-8,-2,0,0,1
32810440817,-2,4,-4,-7,3,1,-1,-1
32810440817,-2,-3,6,12,0,2,-1,-1
32810442406,0,-6,-5,-20,0,1,1,-1
32810442406,-2,5,13,35,4,-3,-1,-1
32810463304,1,7,-16,-18,-6,0,2,2
32810463304,0,-10,6,2,-3,1,1,2
32810464909,-4,2,11,5,-1,-4,-3,-5
32810464909,1,0,-16,-3,-2,2,0,-1
32810485805,-4,-8,4,10,2,-1,-1,-2
32810485805,-1,1,-6,-9,2,-2,-1,-2
32810487428,0,2,-4,-3,0,-1,-2,1
32810487428,0,-2,7,4,0,0,-2,0
32810500121,1,2,-6,-20,-1,-3,-5,0
32810500121,5,8,-10,35,0,-7,-1,-1
32810506943,-14,-6,18,-5,2,15,19,4
32810506943,-2,-3,12,-40,-3,-5,-18,-4
32810523317,-3,-1,-13,-32,1,-1,23,-3
32810523317,1,-6,19,52,0,-1,-14,1
32810524906,0,3,-10,10,2,-8,-9,-2
32810524906,10,2,-4,6,3,-8,3,-1
32810545822,-4,-1,19,0,0,16,-3,2
32810545822,-4,-3,-17,-37,-1,-1,4,-2
32810547434,1,-1,-8,6,-3,3,0,-2
32810547434,-3,-5,-7,-20,-4,-6,4,1
32810560798,2,-3,-4,29,-4,-8,-8,0
32810560798,2,6,-6,-51,-2,2,2,0
32810562448,2,14,18,40,3,-7,-3,1
32810562448,10,-16,-26,-14,-4,7,12,3
32810583298,-6,-1,-13,12,2,1,-5,-1
32810583298,-2,5,4,-6,0,4,6,-1
32810584928,-3,-8,-7,-23,-4,-9,-5,-4
32810584928,9,8,-5,5,-1,-1,2,-1
32810605772,-3,-2,-16,1,-1,0,2,1
32810605772,-3,13,16,0,2,-2,-3,-3
32810607440,7,-22,-17,11,-2,-1,0,0
32810607440,-12,12,24,-4,-6,0,-4,-2
32810620809,-3,-11,-9,0,5,0,-4,1
32810620809,-3,7,0,-13,-2,-5,-2,0
32810622432,1,-9,-4,-7,-2,-1,-2,1
32810622432,0,21,-1,8,-2,4,1,1
32810643294,0,-12,19,6,3,-7,-4,-2
32810643294,4,3,-26,-22,-4,-1,1,1
32810644909,-1,-11,-38,-6,-2,5,0,1
32810644909,-3,1,21,8,0,-1,-3,-1
32810665828,-1,9,5,-2,-1,-4,0,-2
32810665828,2,-9,20,19,3,1,-1,1
32810667446,1,14,13,-10,-3,-1,-2,0
32810667446,-12,-24,-17,2,0,-2,-3,-3
32810680137,3,3,16,-22,-5,-4,-1,-3
32810680137,-1,-4,-7,25,3,1,1,-1
32810686922,-3,-2,-19,-21,-2,-4,-2,-3
32810686922,-1,-3,-4,-1,0,1,2,3
32810703264,4,0,16,13,-2,-1,-1,-1
32810703264,-2,-10,-21,-12,6,1,0,0
32810704898,2,12,16,1,-4,0,-1,0
32810704898,0,-2,-4,12,7,0,-1,1
32810725838,1,6,-8,-26,-2,-1,1,4
32810725838,-4,-22,21,35,-4,-4,-1,1
32810727437,-1,4,-2,-1,2,0,-2,-2
32810727437,-2,-5,-10,-13,-6,-1,-1,-1
32810740139,-3,-4,-9,19,-1,-1,-2,-3
32810740139,0,6,0,-2,4,2,3,-1
32810746943,1,5,0,-9,1,-3,-1,-1
32810746943,-2,-2,1,15,-5,-2,-3,-4
32810763311,0,12,11,2,3,-10,-1,1
32810763311,-5,-20,-18,-17,-7,-8,0,-2
32810764924,-1,-8,2,-12,-1,-6,0,-1
32810764924,3,15,2,62,9,1,0,2
32810785833,-1,-6,-17,-81,-6,2,0,0
32810785833,-4,-5,7,79,6,4,-2,-1
32810787422,2,-1,4,-53,-11,0,-2,1
32810787422,-1,-7,-3,85,4,2,0,0
32810800188,-2,4,9,-38,-4,3,-1,-3
32810800188,6,7,15,-5,-3,1,-1,1
32810806942,-9,-4,-2,22,5,4,0,0
32810806942,4,1,-9,-58,5,1,0,-3
32810823519,7,-7,-3,41,-10,-2,-5,3
32810823519,-2,7,4,40,2,1,-1,-1
32810824994,-2,1,2,-34,5,1,-1,-1
32810824994,-2,-4,9,-12,-4,-4,3,1
32810846024,4,2,-11,21,3,0,-1,-2
32810846024,0,4,5,-10,-3,0,-1,-1
32810847577,-5,-6,-9,42,4,-3,-14,-2
32810847577,1,-5,-3,-28,-5,-6,5,0
32810860064,-5,4,-7,20,5,2,-1,1
32810860064,-3,9,-9,24,0,-6,-3,0
32810868487,6,0,7,-63,1,18,11,4
32810868487,5,-13,6,-10,-5,0,-5,-4
32810883566,-6,-4,-16,13,1,0,2,0
32810883566,-4,-1,20,-20,-1,0,3,-1
32810885099,3,9,2,20,1,-7,-4,-3
32810885099,3,8,-9,-45,-5,0,-1,1
32810905987,2,0,-3,30,-2,0,0,1
32810905987,-6,-4,13,-15,1,2,-5,-3
32810907514,2,13,10,15,-2,-3,7,-1
32810907514,-6,-11,2,10,-1,1,-5,1
32810920239,-2,4,4,4,1,3,0,-1
32810920239,2,-2,-10,-32,1,-2,0,2
32810927125,2,-2,3,25,-2,-5,-1,-2
32810927125,-2,2,0,3,1,-2,0,0
32810943489,-1,-1,8,-10,-3,-4,-2,-2
32810943489,3,0,1,-19,-2,0,-2,-2
32810945048,-2,-10,-22,23,-1,-1,0,0
32810945048,1,6,1,-9,-5,-2,-2,1
32810966031,-3,-3,-21,-9,1,-2,0,1
32810966031,2,5,-7,-10,-5,-1,2,-2
32810967566,-4,-5,-5,10,1,-5,0,0
32810967566,-5,-5,1,-8,0,1,-2,-1
32810980273,0,1,8,6,2,1,-1,-3
32810980273,0,-1,-11,-6,-1,0,-1,0
32810987152,-1,6,3,-2,-2,-2,-2,-2
32810987152,-2,-1,-34,6,1,0,0,0
32811003373,0,-3,46,-16,-9,-5,-2,-2
32811003373,-6,-9,-13,0,2,-1,1,-1
32811004957,-1,0,11,13,0,-2,0,-2
32811004957,-5,-3,-5,-3,0,-1,-1,-1
32811025862,-2,0,-9,4,-1,1,0,0
32811025862,4,2,-4,-14,-3,-1,0,0
32811027484,0,-4,-1,-1,-2,-1,-1,0
32811027484,0,0,13,4,1,1,0,-1
32811039629,0,0,-8,0,3,2,1,0
32811039629,1,-1,10,-1,-3,0,-2,-1
32811048527,0,-5,-9,2,0,-1,1,1
32811048527,-4,4,9,0,-2,-1,0,-2
32811063500,4,-1,-7,-1,0,-1,-2,-1
32811063500,-1,-5,14,-4,-2,-2,-3,0
32811065040,0,-6,-8,13,-1,0,-4,-1
32811065040,-2,5,1,-6,0,-12,-8,-3
32811085978,-1,2,7,2,1,6,21,2
32811085978,0,1,-34,-13,-3,-25,-9,-2
32811087583,-13,-2,43,9,-2,19,-5,-2
32811087583,0,-3,-38,-19,2,2,-11,3
32811099653,-3,-4,-20,-19,0,9,8,-3
32811099653,0,4,21,24,-2,-1,9,1
32811108554,18,-1,21,22,-8,-19,45,-5
32811108554,-6,-5,8,-10,2,-5,-12,-1
32811123451,-3,8,13,1,2,8,-8,-2
32811123451,-2,-7,-24,-36,1,10,-11,-1
32811124943,1,6,-12,12,-2,-5,0,1
32811124943,3,8,28,4,2,7,12,-1
32811146378,0,-5,-25,14,-1,-16,-9,-2
32811146378,3,-3,12,9,3,1,14,3
32811147934,-4,1,-4,-48,2,2,-9,2
32811147934,0,-2,13,18,-1,1,2,0
32811159658,0,8,9,2,2,-7,-13,0
32811159658,-1,1,12,14,-2,9,-3,-1
32811168488,-2,-7,-16,-13,3,2,-5,2
32811168488,-3,4,-13,12,-2,-6,-4,-3
32811183479,1,-9,6,2,-3,-3,5,0
32811183479,-2,2,10,20,1,4,4,1
32811185029,-1,-6,-4,-17,1,-1,-8,0
32811185029,-1,-6,0,-23,-3,1,8,-1
32811205869,-1,-3,13,20,1,1,-3,0
32811205869,3,5,-10,-24,-2,-1,-4,0
32811207536,-6,1,3,-64,6,-1,-7,-1
32811207536,1,8,0,84,-8,0,-1,0
32811219604,-3,-3,3,-26,7,2,1,0
32811219604,-7,-16,-11,-65,-19,-7,-5,-3
32811228628,2,2,0,-31,2,0,-2,-1
32811228628,2,-2,-3,-51,-1,2,3,1
32811243470,0,-1,16,118,3,-4,-1,1
32811243470,-1,2,-16,-51,3,0,0,0
32811245102,3,5,0,18,-10,-1,-1,0
32811245102,-6,-17,-6,16,4,0,-1,0
32811265919,0,3,6,-3,-9,-4,-5,-2
32811265919,6,4,-19,-4,8,0,-1,1
32811267633,-3,-5,1,8,-2,0,-4,0
32811267633,1,2,14,-4,0,0,1,-1
32811279638,-2,4,-9,-19,-4,-2,0,-1
32811279638,-1,-3,8,36,3,1,0,0
32811288536,0,7,3,12,2,-3,-4,0
32811288536,0,-5,-19,18,4,1,4,0
32811303466,-3,0,0,-73,-4,-3,-3,-2
32811303466,0,-10,5,51,1,0,0,-1
32811305030,-1,5,-2,17,-1,-2,-3,-1
32811305030,2,2,9,-26,0,2,1,-1
32811326051,2,-2,-12,-34,-2,-1,-1,0
32811326051,-1,4,-14,4,1,0,1,-3
32811327562,2,0,11,38,3,2,1,0
32811327562,-6,3,-3,1,1,0,1,-1
32811339677,1,-5,-4,-13,1,0,0,1
32811339677,-3,1,6,7,-5,-2,0,1
32811348541,0,-6,-38,-12,3,1,-1,0
32811348541,3,4,25,-7,-3,-2,-1,-2
32811363589,-1,-4,-2,9,-1,0,0,1
32811363589,-2,1,8,-5,3,0,1,0
32811365052,-1,2,4,2,-8,-2,-1,-2
32811365052,2,5,12,-2,5,0,0,0
32811385954,-3,-8,0,4,-2,-2,-2,-1
32811385954,1,-1,3,5,1,-1,0,-1
32811387514,-3,9,-1,-6,0,-2,-2,0
32811387514,3,-16,-15,-1,-2,-2,2,0
32811399714,0,5,17,6,1,-1,0,-3
32811399714,1,5,23,10,-1,1,1,-3
32811408541,-4,-12,-21,3,2,-2,-2,-3
32811408541,0,2,-15,-18,-2,0,-3,-1
32811423941,-2,-2,-16,0,-2,1,0,1
32811423941,0,2,-5,-1,-1,0,0,1
32811425427,-1,1,15,6,-3,-3,-3,-1
32811425427,1,1,-13,-4,-1,0,3,-1
32811445976,-4,-7,-8,-11,-3,-3,-2,0
32811445976,-2,3,7,8,-1,-4,0,-1
32811447536,2,-3,-1,-8,-3,-1,0,1
32811447536,-2,0,1,-5,-6,-6,-16,-2
32811468519,1,5,3,14,0,2,11,-1
32811468519,-2,-3,2,-1,0,6,4,1
32811470083,-3,-6,-12,2,-2,0,-1,-3
32811470083,2,1,6,7,-1,0,0,-2
32811483518,0,-1,-14,-25,-2,-6,-9,-3
32811483518,-1,-1,17,4,0,-1,-2,-1
32811484959,0,-4,-6,1,3,1,4,1
32811484959,0,7,2,3,-2,-1,0,1
32811505970,-1,0,-2,-9,-4,2,0,1
32811505970,2,-1,-2,13,7,-1,0,0
32811507502,-1,11,-1,-3,1,-1,-1,0
32811507502,-6,-23,-3,-11,-4,-2,1,-1
32811528557,1,-4,-12,-2,1,2,2,1
32811528557,-2,6,5,-9,-5,-4,-1,1
32811529941,-2,-13,-15,5,4,-3,-3,-2
32811529941,-2,13,-3,-24,-5,-2,2,2
32811543456,-1,-19,1,32,8,-2,-2,1
32811543456,-3,-5,-24,-15,-5,-3,-4,-2
32811544944,0,0,21,0,-3,0,0,0
32811544944,-1,12,-8,-4,1,-1,2,-1
32811565927,-3,-12,11,-10,1,1,-1,-3
32811565927,-4,5,6,15,4,0,0,1
32811567572,-7,1,6,-7,-2,1,-1,0
32811567572,2,-7,-11,4,-3,2,0,-1
32811588551,2,12,15,-9,-1,-2,-4,0
32811588551,5,-6,-33,-5,-2,-2,0,-2
32811590094,6,4,12,-1,-2,-1,1,-1
32811590094,2,-2,4,19,4,1,0,1
32811602788,-1,-2,19,5,1,1,1,0
32811602788,1,2,2,-6,0,0,0,-2
32811609668,0,-6,-8,-6,-7,-1,-1,0
32811609668,5,-1,9,8,6,1,1,0
32811625906,4,7,-10,-5,0,-2,0,-1
32811625906,-1,-1,-12,-1,0,0,-1,0
32811627480,-4,-5,21,-4,-1,-2,-1,0
32811627480,-3,1,-3,-12,-5,-3,-1,0
32811648524,-1,-7,4,13,8,-1,0,-1
32811648524,-2,-2,28,3,-1,-1,-2,-1
32811650029,-2,-5,-45,-11,3,2,1,-1
32811650029,-4,0,12,-1,1,1,0,-1
32811662901,-5,6,-19,-9,-2,1,-2,-2
32811662901,-1,-1,-2,12,-1,1,-2,-1
32811669705,2,1,19,28,-2,-2,0,-1
32811669705,1,-4,-5,-23,-5,-1,-1,-1
32811686015,4,9,11,-8,6,3,0,-1
32811686015,0,-11,0,65,-2,-3,-2,-2
32811687576,1,6,11,5,-6,-1,2,1
32811687576,-4,-5,-18,31,5,-1,-1,0
32811708492,-1,2,4,-2,-4,0,-1,-1
32811708492,-4,-2,-25,-71,8,2,0,-1
32811710045,1,0,-6,-56,-8,-2,-1,0
32811710045,0,3,17,-4,-4,-2,-2,-2
32811722871,0,2,-15,-15,0,1,0,-2
32811722871,-10,-4,3,15,-5,-3,-2,-1
32811729726,4,-2,26,21,0,-1,-1,0
32811729726,-1,2,-21,-54,-4,-1,0,0
32811746045,0,1,-3,-40,-1,-4,0,0
32811746045,0,7,11,59,-4,-1,0,-1
32811747525,-3,2,-1,-3,3,0,1,-1
32811747525,-2,-7,-7,46,4,0,0,0
32811768499,-2,1,-16,-15,-7,0,-1,0
32811768499,2,-3,0,-37,1,-1,2,-1
32811770048,-2,-4,-1,15,2,-2,-2,-1
32811770048,1,1,6,12,-1,0,-1,-1
32811782128,-2,-4,-7,22,1,0,-1,-1
32811782128,0,1,-2,-21,-8,-3,-2,-1
32811798558,0,1,0,1,4,2,-1,0
32811798558,-2,2,-4,-14,-4,-2,-3,-2
32811805987,0,1,19,20,-5,-2,1,-1
32811805987,6,-8,-14,-12,-2,0,0,0
32811807584,1,7,-16,-9,3,-2,0,-1
32811807584,-5,0,17,23,0,0,1,-1
32811828451,-3,-9,0,13,-1,-1,-1,-2
32811828451,-1,-1,-9,-29,-1,-2,-2,-2
32811829950,0,-3,-11,7,-1,-1,-1,-2
32811829950,-1,8,9,-1,4,1,0,-1
32811842830,-2,3,-2,5,-1,-3,-2,1
32811842830,0,0,8,11,0,-1,0,1
32811849683,-1,0,-1,-15,-5,0,0,-1
32811849683,-2,-7,13,13,0,-1,1,0
32811866111,2,-1,-40,-2,2,0,-1,-2
32811866111,0,3,4,0,-1,0,0,0
32811867555,-3,-2,-7,12,-1,0,0,0
32811867555,3,6,15,-25,-1,0,0,2
32811888569,-2,-7,10,22,-5,-1,0,-2
32811888569,1,1,2,-7,0,0,1,0
32811890081,-2,-5,-11,4,0,-2,-2,-1
32811890081,-3,-4,-7,-3,-2,-1,-1,0
32811902763,5,6,-1,-3,-1,-1,0,0
32811902763,-1,-11,11,-5,-4,0,0,0
32811909743,-3,-9,1,-10,8,0,0,1
32811909743,0,-5,-35,10,-2,-2,-1,-1
32811926022,-6,2,30,17,5,-1,0,0
32811926022,-1,9,7,-14,-5,-2,1,-1
32811927551,2,4,-9,12,2,0,-2,-3
32811927551,1,-15,7,-13,-1,1,0,-1
32811948559,4,-1,-3,-2,-2,-1,0,0
32811948559,-5,-1,-2,5,5,0,-3,-1
32811950093,2,0,-17,-11,-8,-2,-2,-1
32811950093,-3,-9,-9,9,0,-2,-1,-2
32811962176,1,2,16,0,0,0,0,-1
32811962176,-2,0,0,3,0,-1,-1,-1
32811971082,-1,3,0,2,-2,0,-1,0
32811971082,0,8,12,-3,-3,-1,-1,-1
32811985945,-3,-11,-37,-23,-2,0,0,0
32811985945,-2,2,1,18,2,-1,-1,-1
32811987526,-2,-6,8,3,0,-1,0,-1
32811987526,2,7,1,-3,-1,-2,1,1
32812008369,-1,0,2,4,0,0,-1,-1
32812008369,-1,1,-3,-16,-3,-1,-1,-2
32812010017,2,6,13,16,-2,1,2,1
32812010017,-1,2,-5,-8,3,0,-1,-1
32812022064,-3,-22,-11,-5,-2,-2,0,-1
32812022064,4,4,-8,-16,-1,-3,0,-3
32812031062,-1,-4,10,2,5,1,0,-2
32812031062,-2,5,15,37,-1,-1,-1,-3
32812046046,-1,3,-6,-14,-2,-1,0,0
32812046046,-1,-3,0,13,2,-3,-1,-1
32812047503,0,3,2,-66,-10,-1,-2,1
32812047503,-2,-1,-10,30,-2,-2,-2,0
32812068529,0,-6,-2,-47,6,2,0,1
32812068529,-2,4,8,116,2,1,-2,0
32812070058,1,5,-16,-82,-5,-3,0,1
32812070058,6,-12,-11,58,-4,-2,0,-2
32812082177,-14,4,-6,58,11,0,0,-4
32812082177,-8,-9,-10,-126,-13,-3,-2,-1
32812091089,11,9,14,127,-8,-6,-5,2
32812091089,7,0,-20,-19,-6,3,9,-1
32812105929,9,-1,26,28,0,-10,-8,-1
32812105929,57,16,2,-23,3,8,-4,-5
32812107537,-19,-23,14,-17,5,15,17,9
32812107537,-20,-4,-3,-42,-5,-13,19,-12
32812128495,-10,6,13,20,2,28,-21,-7
32812128495,16,4,-12,-23,-2,0,-32,16
32812130084,12,7,0,12,2,2,10,9
32812130084,7,-9,17,-18,6,-2,-10,11
32812142568,2,-10,-11,-19,-6,-4,11,-6
32812142568,-23,3,4,8,-1,-6,9,2
32812151067,8,11,21,27,3,-2,-12,5
32812151067,-13,-4,-13,-21,1,-1,-1,-15
32812166048,-6,8,2,-4,-5,-11,-2,2
32812166048,-2,-14,-18,12,2,1,7,0
32812167561,-6,9,-12,-13,-1,-7,2,-7
32812167561,5,-20,9,-1,-1,2,-8,-2
32812188605,5,1,-8,-10,-8,-6,0,2
32812188605,-13,0,-6,8,1,-1,4,-4
32812190031,-5,-11,7,2,5,0,-5,-6
32812190031,-1,12,8,18,-1,0,-7,4
32812202129,5,5,17,-22,5,-1,1,2
32812202129,-13,-5,-13,45,-4,-1,7,0
32812211066,-4,2,-8,-43,5,-1,-5,-7
32812211066,7,2,5,56,3,4,-4,5
32812226072,0,-3,-10,-94,-18,-6,8,3
32812226072,-4,7,15,6,7,1,-1,-4
32812227545,-1,-24,-27,-20,0,1,-6,-2
32812227545,-3,2,24,83,-5,-1,1,2
32812248389,3,0,-12,8,3,-5,1,-2
32812248389,-4,4,-5,-1,1,1,1,-2
32812249920,2,-3,-9,-23,-2,-2,-2,-5
32812249920,2,16,-1,-44,2,-2,-12,0
32812262065,-20,-25,-6,24,0,-14,-7,18
32812262065,1,-2,5,-15,-3,20,31,-2
32812271085,-7,2,6,35,0,-2,0,-15
32812271085,3,4,4,-35,-2,1,-14,-3
32812286014,-2,5,-5,24,0,3,1,-4
32812286014,-3,-9,0,-6,0,-12,-17,1
32812287568,27,1,10,1,-1,-4,-14,4
32812287568,-37,8,-14,-9,4,8,15,-1
32812308457,6,-5,-16,-27,1,5,15,1
32812308457,-8,-21,37,23,-1,-9,11,-4
32812310023,0,5,-8,19,-2,-4,2,4
32812310023,12,0,-8,-41,0,-3,-10,2
32812322161,3,9,-17,28,2,2,-2,-2
32812322161,-4,10,11,-2,-1,-5,-6,2
32812331078,-6,-8,17,-14,-1,-3,-2,-2
32812331078,5,-1,-14,54,2,-1,-1,2
32812345322,-2,1,-6,-73,-6,-3,1,-4
32812345322,3,3,3,87,8,2,-2,0
32812345984,-8,2,12,51,-10,-3,-6,-2
32812345984,2,-5,-7,-21,9,5,10,-1
32812367925,7,7,26,106,-8,0,0,-1
32812367925,1,-2,14,-128,-13,-4,-8,-1
32812368548,-2,3,-10,103,7,3,6,0
32812368548,5,7,33,-17,4,2,4,3
32812390453,-4,-17,-26,26,0,-1,-4,-1
32812390453,-2,1,2,13,0,-2,-5,-1
32812391040,-4,2,1,-60,-12,-3,3,0
32812391040,4,-3,-12,14,1,-3,0,0
32812405271,2,5,5,-47,6,0,-5,-1
32812405271,-1,-7,-24,24,1,-1,2,-3
32812406023,-1,-4,-1,-40,1,0,-1,-3
32812406023,1,2,-7,-4,-8,-4,-3,-1
32812427747,1,-1,6,14,-1,1,0,-2
32812427747,0,4,20,-17,2,1,-1,1
32812428500,-3,6,-37,10,5,-1,0,0
32812428500,-2,-12,13,6,8,-1,0,-3
32812450434,-2,2,4,-13,-2,-1,-3,-1
32812450434,0,3,5,7,-1,0,0,-1
32812451007,-1,0,-7,-9,0,2,-1,0
32812451007,-1,-2,-2,-10,-2,-1,2,0
32812465399,2,3,8,-5,0,1,-3,-3
32812465399,-3,-5,-23,8,-2,0,-3,-1
32812466083,-2,-4,0,-20,-4,0,-1,0
32812466083,2,-2,-2,-22,-11,-2,-1,2
32812487897,0,1,6,13,-3,-2,0,-3
32812487897,-2,-4,-15,-11,-3,-1,0,-1
32812488558,-4,-1,3,5,-1,1,1,0
32812488558,2,5,12,-13,-2,-1,-4,-5
32812510436,0,0,-2,8,9,-1,-3,-1
32812510436,-6,-3,-13,0,2,-2,-1,-2
32812511034,-2,-12,2,-6,0,-2,0,-2
32812511034,0,0,-7,-1,-1,-1,0,-1
32812533604,1,6,1,-5,-1,1,0,-2
32812533604,-1,4,-6,-2,1,0,-1,-2
32812534274,0,0,9,2,1,0,-2,0
32812534274,-3,-3,-7,-14,-1,0,-1,0
32812547747,0,1,3,-9,-2,0,-1,-1
32812547747,-3,-6,-12,43,0,0,-2,-1
32812548487,2,5,-18,-8,-7,3,0,0
32812548487,1,5,36,5,9,2,2,0
32812570243,-4,6,12,20,3,-4,0,-2
32812570243,-1,-23,-8,-22,-1,0,0,-3
32812571053,-2,-1,-9,-10,0,-3,-1,1
32812571053,-1,-1,-10,-6,-5,0,1,0
32812585424,0,0,6,31,2,2,-2,1
32812585424,3,8,-3,-44,-4,-4,0,1
32812586031,2,2,13,9,1,-3,-1,-2
32812586031,-1,-6,-10,-11,-2,-2,-2,-1
32812607878,0,-3,2,9,-1,-1,0,-2
32812607878,0,2,-4,8,-1,-1,-2,1
32812608523,0,-2,-2,-30,3,2,0,-2
32812608523,-4,-1,-5,31,-4,-2,1,-2
32812630455,2,8,-3,28,3,1,1,1
32812630455,1,-6,-6,60,-2,-2,-3,-3
32812631062,-2,2,17,-62,-3,-4,-2,-1
32812631062,-3,-4,-19,-22,-1,-2,1,0
32812645325,-1,-1,-11,-6,1,0,2,0
32812645325,2,11,9,-12,3,1,0,2
32812646031,-1,-7,5,33,1,0,-1,-1
32812646031,0,-2,-11,-2,-2,-2,-2,-2
32812667940,2,-1,8,-17,-5,-1,-1,1
32812667940,-2,3,1,-11,2,0,-1,0
32812668578,-1,-2,-4,12,-2,-3,0,1
32812668578,0,0,2,-7,-3,0,1,0
32812690424,-1,-4,-3,-11,2,1,0,-1
32812690424,1,-3,2,-13,-4,0,-2,0
32812691086,-1,0,-28,15,0,0,2,0
32812691086,2,1,29,-8,0,0,-2,-1
32812705383,-5,-3,1,-4,-7,-5,-1,-1
32812705383,1,-3,-3,-3,-1,1,0,-2
32812706081,0,3,5,2,0,0,0,0
32812706081,0,-2,-15,-3,0,-2,-1,0
32812727942,1,-1,1,-7,-3,0,-1,-1
32812727942,-1,0,7,-7,-1,0,-1,1
32812728577,0,3,6,-5,1,-3,-2,-1
32812728577,0,-6,-10,8,3,0,0,-1
32812750442,-1,1,14,0,-1,-2,-1,0
32812750442,1,-1,-9,3,-1,-1,3,0
32812751042,3,-4,15,15,2,2,-3,-2
32812751042,-1,7,2,4,0,-1,2,2
32812765423,0,-4,-25,-15,-3,-2,-2,-3
32812765423,-3,-10,-7,-20,0,-3,0,-2
32812766052,2,0,-4,10,-2,-2,1,0
32812766052,2,4,-1,-6,-2,0,-2,1
32812787891,-1,4,0,22,3,-3,-4,1
32812787891,1,19,-1,-26,-2,3,-1,1
32812788551,-5,-14,-7,-2,-3,-5,-1,0
32812788551,1,-5,3,-15,-3,-2,-2,-1
32812810875,1,0,-4,19,0,-1,0,0
32812810875,0,3,-1,-1,-1,-1,-1,0
32812811533,-2,6,5,-30,-1,5,3,-2
32812811533,4,-2,-22,38,0,-3,-2,0
32812825483,9,-1,10,-14,-1,-2,-4,-2
32812825483,-3,1,10,-45,-3,-5,12,0
32812826029,0,0,-19,-22,-1,-1,-1,1
32812826029,-4,-17,23,15,-4,-4,-2,-2
32812847558,3,6,12,7,2,0,0,-1
32812847558,-6,-17,-16,9,-1,4,-11,-5
32812855368,0,2,-11,12,1,-3,-7,1
32812855368,2,5,-11,-26,0,3,13,0
32812870426,-3,-5,-3,4,-1,-2,-5,0
32812870426,-1,12,1,8,-2,-1,1,0
32812871053,-6,-11,-2,-10,-1,-1,-4,-1
32812871053,1,2,0,16,-1,4,-6,-2
32812885382,-3,-5,19,67,2,-2,2,1
32812885382,-3,-3,-33,-56,-4,-3,-3,-2
32812886059,5,6,23,22,1,0,4,0
32812886059,-1,1,6,-28,2,-3,-10,0
32812907902,-2,2,-2,17,0,8,15,2
32812907902,2,-1,18,30,3,0,-1,3
32812908542,-4,-4,-6,-10,-3,-3,-2,-2
32812908542,1,3,-7,-37,-2,2,-1,-1
32812931101,-5,0,14,1,1,2,-2,1
32812931101,3,2,7,14,2,0,-1,0
32812931822,2,2,32,25,1,2,-1,0
32812931822,-2,-2,-35,-2,-1,-3,2,1
32812945322,1,-1,-16,-96,-9,1,0,-3
32812945322,-3,-4,-4,97,7,0,1,0
32812946007,2,7,27,3,-2,1,0,-1
32812946007,-1,-2,8,-40,0,-2,1,0
32812967877,-3,-12,-21,-40,1,-2,-6,-2
32812967877,1,1,13,-26,-8,-3,-2,-1
32812968608,-4,-5,-18,7,1,1,-1,-4
32812968608,0,5,16,42,5,-1,1,-1
32812991119,-3,2,9,-22,-3,-3,-1,-1
32812991119,1,-9,4,33,2,-4,-6,-1
32812991772,-1,10,-10,-14,-6,-1,-1,0
32812991772,-3,-21,3,12,3,2,-1,-2
32813004603,0,-1,-16,-19,-3,-1,-1,-1
32813004603,0,0,16,2,0,-3,-1,0
32813012731,2,4,-3,-1,-1,0,1,1
32813012731,1,8,-22,-1,-2,0,-1,1
32813027756,-4,3,24,35,-1,-3,-2,0
32813027756,-2,-7,-9,-17,-7,-1,0,-1
32813028548,0,-8,-11,-20,4,2,1,1
32813028548,-2,4,3,2,-7,-2,-1,0
32813050955,4,11,1,-5,0,2,0,0
32813050955,-3,-4,-9,43,3,-1,1,-1
32813051754,-4,-1,-2,-50,-2,0,1,-1
32813051754,-2,4,27,16,-4,-2,-1,-3
32813064610,-1,-5,-16,9,9,-1,0,1
32813064610,1,4,10,-36,-2,2,0,1
32813072837,0,0,-8,20,0,-1,-1,0
32813072837,2,14,10,2,2,1,0,1
32813087720,-4,-18,-8,1,-3,-1,-1,-2
32813087720,2,9,11,-11,2,1,-1,0
32813088504,-1,-8,3,12,-2,-1,0,2
32813088504,1,-5,-13,-11,0,0,0,1
32813110988,3,9,13,-1,2,-2,-1,1
32813110988,-2,-4,-15,-2,-1,-2,0,-1
32813111770,1,10,-1,18,1,0,0,0
32813111770,-3,-5,-8,6,-2,-3,-1,-3
32813124653,-2,-5,-30,-11,-3,0,3,1
32813124653,-2,0,-8,-10,0,-1,-2,-2
32813132854,1,1,4,8,1,0,-1,-1
32813132854,-3,-5,-4,0,1,-1,0,0
32813147870,0,0,1,0,0,-1,-2,-1
32813147870,0,5,0,-14,-2,-2,0,-2
32813148593,-3,-6,-6,14,0,-2,0,-1
32813148593,-1,-5,-1,-4,1,0,-3,-1
32813171031,0,4,6,-13,-5,0,-1,-1
32813171031,1,2,-20,1,1,2,2,2
32813171816,1,-7,13,14,-4,-3,-3,-3
32813171816,-2,4,6,-2,3,2,1,0
32813184754,2,-6,-5,-4,-4,-3,0,-1
32813184754,1,-2,2,-8,-3,-2,0,-1
32813192955,0,-3,-4,2,0,0,-1,-1
32813192955,1,8,-6,-7,-2,-2,-3,1
32813207780,0,-1,5,8,-6,-2,-1,0
32813207780,-1,-5,-15,-7,2,4,-1,1
32813208521,0,1,7,-7,2,0,0,0
32813208521,2,2,20,13,0,-1,-1,-2
32813230940,-3,-1,2,6,0,-1,-1,-1
32813230940,1,-2,-2,-8,-5,-3,0,0
32813231750,-4,0,3,2,2,-1,-1,0
32813231750,-1,-6,-5,-4,2,0,0,0
32813244683,0,-1,-14,-12,-3,-1,0,-1
32813244683,-2,4,38,28,0,-2,-3,-6
32813252971,-1,-1,-15,-7,0,-1,0,-1
32813252971,-1,-4,1,-3,-6,-3,-2,-2
32813267909,2,2,3,9,8,1,-2,1
32813267909,-1,0,12,-2,-2,0,0,2
32813268600,1,-3,-39,0,0,-2,0,0
32813268600,-1,2,21,-4,-5,-3,1,0
32813290915,-2,-5,-3,12,3,-1,-1,0
32813290915,-1,1,-8,-28,-2,-1,-1,-1
32813291721,0,-2,24,20,-4,-1,-1,-1
32813291721,0,6,-10,-29,3,1,1,0
32813313457,1,7,0,49,-4,-2,-2,-1
32813313457,-1,-19,-15,-36,4,0,1,0
32813314252,0,1,-14,1,-1,-3,-3,-1
32813314252,0,-3,10,-7,-10,-2,-2,-1
32813327857,1,3,1,74,8,1,0,-1
32813327857,-1,3,-12,-26,-3,1,0,-1
32813328597,-1,-1,15,-89,-6,-2,1,0
32813328597,-3,-9,-53,10,4,1,-1,-2
32813350973,0,7,20,22,-1,-2,-1,-2
32813350973,-4,1,10,22,1,0,0,1
32813351779,3,-2,-8,36,4,2,-1,1
32813351779,-2,13,14,-26,-3,1,0,0
32813373504,4,-16,-6,-34,-4,-1,1,0
32813373504,0,-3,-23,15,0,0,-2,-1
32813374257,2,12,29,-11,-1,1,1,1
32813374257,0,-5,-5,23,-2,0,-3,-3
32813387841,-3,1,-15,-38,0,1,1,1
32813387841,0,2,12,8,1,-3,0,-1
32813388603,-2,4,-4,20,1,0,2,-1
32813388603,1,-8,-8,-6,-1,-1,0,-1
32813411104,-1,6,5,-10,-2,-2,-2,-2
32813411104,-4,-6,-4,-9,-2,-3,-1,-1
32813411731,-1,0,6,20,-2,0,-1,-3
32813411731,2,-1,-2,8,2,-1,0,0
32813433519,-1,-2,2,-26,-2,-1,-1,1
32813433519,1,5,13,10,0,1,-3,-1
32813434326,-2,-5,-20,-10,-3,-7,2,-3
32813434326,0,0,21,10,3,2,8,1
32813447929,5,-4,-1,-4,-1,-6,3,-2
32813447929,-19,1,-6,-9,-1,6,-1,-3
32813448560,-6,-4,15,21,2,20,-8,6
32813448560,12,0,20,18,-1,-4,15,1
32813471046,-4,-6,-59,-18,-5,-12,-22,-3
32813471046,13,-2,-13,16,-1,-10,67,-2
32813471862,-2,1,-12,-51,0,5,-63,-2
32813471862,-5,4,6,4,0,9,-9,3
32813492702,-6,-3,38,-2,0,-7,-8,-4
32813492702,3,-8,-29,10,5,40,30,3
32813500347,0,-3,11,29,-3,-19,12,-3
32813500347,1,1,27,-8,-2,-8,5,-3
32813507860,16,4,-65,-18,-2,-3,-6,14
32813507860,-2,2,24,-13,-4,-15,-26,-4
32813508717,-27,-10,19,4,0,6,21,-1
32813508717,-9,0,-39,-26,-3,-9,-20,-6
32813530964,-4,1,29,18,0,2,7,-3
32813530964,0,0,1,-11,0,-5,-15,2
32813531767,10,0,-29,-4,-4,-2,3,2
32813531767,-1,-1,17,51,4,-1,0,3
32813553494,-3,13,33,-39,-5,2,5,-3
32813553494,-2,-7,-42,47,-1,-8,-13,-4
32813554276,0,-21,4,0,3,-8,0,-6
32813554276,-2,-5,-38,-32,-3,-1,-2,1
32813567761,0,1,-3,-4,3,9,10,0
32813567761,0,13,71,-37,-15,-8,-18,-4
32813568558,7,11,-41,24,12,3,11,3
32813568558,0,-19,9,65,-5,1,0,0
32813590985,-5,-8,-38,-40,-7,-1,-1,-4
32813590985,2,3,18,6,-3,-7,-6,3
32813591768,1,3,-31,-78,-3,-3,3,0
32813591768,2,-1,7,45,7,4,1,-1
32813613518,-5,-1,22,24,-2,-1,-2,-4
32813613518,-3,-3,-47,-34,0,-1,-5,0
32813614368,7,5,12,22,-4,1,6,-1
32813614368,-1,5,14,-14,-1,-1,-5,-2
32813627804,-2,-6,-1,-65,8,1,1,0
32813627804,1,1,9,55,3,-2,-3,-1
32813628574,-2,-4,28,9,-5,-3,-1,-3
32813628574,-1,3,-10,1,4,0,0,2
32813651041,-1,1,0,10,-6,1,0,-2
32813651041,-2,-9,-6,1,0,-3,-5,0
32813651768,3,6,-4,-2,-3,-2,1,0
32813651768,-2,14,1,-42,-5,-1,0,-3
32813674924,-5,-19,21,35,-2,1,2,0
32813674924,3,6,-33,-9,-3,-2,-2,2
32813676500,0,7,35,6,10,0,0,2
32813676500,-3,-9,-25,-5,2,-1,1,-2
32813687815,0,1,5,22,6,2,0,-2
32813687815,-2,-14,-16,-18,-4,-1,-3,-1
32813688571,1,2,5,6,-4,-2,1,0
32813688571,0,-1,-3,-7,-2,-1,1,2
32813711044,-1,2,-2,0,3,2,1,1
32813711044,0,-3,14,4,2,-1,-3,-2
32813711791,1,5,9,11,-2,-2,1,-2
32813711791,1,2,-19,-26,-2,-2,-2,0
32813733515,0,-10,-14,9,-4,-3,-2,-2
32813733515,-1,9,34,0,3,1,-3,-2
32813734272,-2,-7,-33,-13,-3,-1,0,-1
32813734272,-2,-1,9,3,-2,0,1,-2
32813747822,2,8,5,4,0,0,0,2
32813747822,0,5,20,9,2,-1,-2,1
32813748602,-2,-9,-6,5,-3,-1,-1,-3
32813748602,4,-6,-3,-9,1,1,0,-2
32813771050,3,5,4,-18,-4,-3,-1,1
32813771050,3,-2,-4,17,2,0,-1,0
32813771749,-6,0,3,4,-3,-1,-1,-2
32813771749,19,2,-7,0,-3,0,0,-2
32813793550,3,3,-12,-8,5,5,-6,7
32813793550,-2,-1,15,-4,-3,-3,5,-1
32813794272,-4,-5,-6,-12,-3,-7,-11,-2
32813794272,12,0,6,-9,-1,1,7,1
32813807827,-7,0,-10,-4,-2,-10,4,-4
32813807827,2,1,18,15,-2,-20,18,1
32813808547,6,2,-20,64,8,21,-31,2
32813808547,8,-7,-36,-98,-5,21,30,18
32813831016,-6,-5,25,12,-4,-4,-14,-6
32813831016,-5,6,-29,10,-2,-1,-9,-2
32813831747,-9,-8,36,-9,-1,-22,6,-2
32813831747,-6,1,15,19,0,1,-7,-3
32813853502,9,1,11,16,1,3,4,1
32813853502,1,1,-19,6,5,6,5,2
32813854493,9,2,-31,-48,-10,-4,-4,-1
32813854493,-10,-1,14,17,-1,-16,0,-5
32813867801,-4,-1,10,-4,0,17,8,1
32813867801,0,1,13,6,-3,3,-11,-3
32813868618,3,3,-25,-5,4,6,5,0
32813868618,-12,0,25,-18,0,-10,3,-5
32813891022,-5,0,4,65,1,-5,7,0
32813891022,5,-4,1,12,-1,1,-5,0
32813891766,-2,1,-3,-64,-7,7,13,2
32813891766,-8,0,-10,-47,-1,-3,-9,-5
32813913324,3,-1,19,21,0,1,-6,-1
32813913324,8,-5,-29,-34,-6,5,-3,1
32813919696,-4,-3,9,-3,2,-5,-3,0
32813919696,-7,2,3,38,-2,-18,-15,-6
32813927147,-2,-6,-7,-26,1,24,17,3
32813927147,4,3,10,6,3,1,-6,0
32813936090,-3,1,15,11,-2,1,13,-2
32813936090,-2,-4,-20,10,0,-4,-14,1
32813950981,-1,8,-2,17,1,-8,-1,-2
32813950981,-4,-3,-4,-31,3,0,7,0
32813952555,-3,-7,3,-14,-8,-3,-10,-1
