timestamp,emg1,emg2,emg3,emg4,emg5,emg6,emg7,emg8
44817765199,2,2,-5,-1,-7,48,-44,-8
44817765199,19,-8,5,14,27,22,96,23
44817767782,2,-10,-16,-8,-19,13,-70,-8
44817767782,25,-5,6,-5,0,-34,-37,-2
44817768601,-14,-5,-3,3,-1,-16,29,4
44817768601,-9,8,5,0,-9,-16,-30,-6
44817769420,18,-12,-4,-10,4,-8,22,-9
44817769420,-33,15,2,7,1,8,1,1
44817777918,0,1,-5,-4,-2,-3,-9,-5
44817777918,-15,0,-9,-4,-8,25,-2,0
44817781485,49,-10,-21,-15,5,-32,12,-2
44817781485,-5,-6,-22,-4,-6,18,-8,-3
44817796488,0,-4,-6,-3,-5,1,22,-9
44817796488,-18,4,1,-3,-5,9,-25,-5
44817805191,-24,4,34,13,3,7,11,6
44817805191,25,-5,22,-16,6,-8,15,7
44817813044,-5,-4,23,7,11,-22,-47,3
44817813044,-6,-4,10,-5,-5,-20,28,-23
44817826645,-1,2,20,7,8,38,7,22
44817826645,-26,-6,-13,3,-14,9,-10,-17
44817837997,41,0,-4,4,13,-4,16,50
44817837997,-3,9,-29,-5,-9,-5,-25,-18
44817849365,-24,1,-22,1,-6,4,4,-4
44817849365,-12,1,-6,1,4,37,17,-7
44817889842,-9,-13,-1,4,2,5,-10,1
44817889842,-16,7,6,-4,-18,6,1,-2
44817890709,24,11,-7,3,24,-3,26,3
44817890709,2,1,4,1,-2,-3,-10,0
44817891366,-2,-3,-11,1,-4,-9,2,-6
44817891366,-19,3,3,1,2,-11,-28,0
44817894623,2,-1,-2,-3,-5,0,19,2
44817894623,2,-6,-3,1,-1,11,-11,-5
44817901451,-2,2,2,-3,-8,2,7,3
44817901451,-12,-3,-1,2,9,-13,-6,-10
44817909574,-13,-7,9,-4,-9,-4,-25,-5
44817909574,13,8,18,1,2,7,25,20
44817916272,12,-1,-6,3,-7,8,-18,12
44817916272,6,-1,4,-5,2,3,3,2
44817932116,7,-6,3,-8,-2,-13,-1,-16
44817932116,-23,0,3,4,-1,-3,-23,-9
44817938906,2,6,-1,-2,1,-10,2,3
44817938906,7,1,-13,-4,0,0,13,1
44817946460,-10,3,-14,1,-2,5,-15,0
44817946460,0,1,-16,-4,-3,-5,13,3
44817961441,3,0,-3,-1,6,3,13,-1
44817961441,9,-6,-14,2,-2,-5,-8,-2
44817969455,-18,-1,4,1,-5,7,-5,-25
44817969455,-13,-3,-4,-8,-7,-37,-49,-14
44817976402,61,1,11,13,15,48,100,58
44817976402,0,0,6,-7,-14,15,-60,-11
44818000419,1,-2,14,-2,-5,-11,-7,9
44818000419,-22,-13,11,-2,0,-19,-21,-28
44818001826,-19,2,24,0,5,-20,-15,-26
44818001826,6,-3,20,3,1,-2,35,18
44818006290,-5,1,-8,3,-2,22,11,-3
44818006290,8,-3,-21,-1,-4,-2,-14,7
44818021298,-15,2,-1,-3,-1,-1,19,-11
44818021298,4,1,-21,1,-4,0,1,9
44818029506,7,-4,-12,-1,-3,-13,-21,-1
44818029506,-3,2,-6,0,2,6,24,2
44818036288,-9,-3,-11,-4,-6,-13,-40,-9
44818036288,-12,-3,-6,-2,-1,-6,-8,-13
44818052094,18,5,2,4,5,10,44,10
44818052094,19,5,-4,-5,-5,8,0,17
44818058934,-10,-3,-4,-6,-3,-11,-29,-20
44818058934,-8,-4,5,2,3,-7,-1,-10
44818066465,-3,-1,7,1,-3,-6,-11,8
44818066465,-13,-3,3,4,-1,6,10,0
44818081366,-8,3,5,-4,-7,-10,-15,-8
44818081366,46,7,2,3,17,22,37,39
44818089500,-28,-17,-2,1,-6,8,-11,6
44818089500,11,-2,-2,1,7,-6,1,-9
44818096373,-14,-3,-7,-3,-3,-11,-18,-11
44818096373,-13,-3,-4,0,-1,-5,3,-10
44818112103,-10,4,-4,-2,-1,15,7,4
44818112103,24,-3,-11,-8,0,-16,-27,-12
44818118940,-5,-6,-8,3,4,6,21,7
44818118940,0,-4,-8,2,0,-2,-17,-4
44818126441,-2,-2,-1,1,0,9,-2,-5
44818126441,-7,-2,-3,0,-4,13,0,-4
44818141260,5,6,0,-2,-5,-3,-4,3
44818141260,18,5,4,-10,-1,-19,-2,-15
44818149591,-5,9,11,1,-4,-15,-17,-11
44818149591,-3,2,11,1,-1,1,8,1
44818156298,-9,-4,5,5,3,20,14,4
44818156298,-14,-5,-10,-2,-6,14,2,-5
44818171995,-2,4,-9,-4,-4,-5,-30,13
44818171995,11,-2,-6,-1,-1,-4,47,4
44818178948,-9,-10,-6,1,0,-8,-32,-6
44818178948,-7,-2,0,-2,-4,-2,6,-1
44818186415,11,0,-4,-2,1,-7,-3,-1
44818186415,-20,0,-5,3,-1,11,14,1
44818201328,6,-2,-6,-6,-4,0,-17,-2
44818201328,-7,-2,0,3,0,-14,21,-2
44818210045,9,-2,-3,0,3,21,17,11
44818210045,11,0,17,4,2,8,-6,13
44818225356,8,4,-12,-6,-4,-7,3,-4
44818225356,0,-4,5,5,5,-1,-6,-2
44818232177,-5,-1,3,-3,-6,-10,17,-5
44818232177,1,-6,-9,-2,-3,-2,-5,-5
44818247185,-3,-2,-4,1,2,7,19,0
44818247185,-19,1,-7,2,-6,7,-12,-11
44818247854,23,1,-11,-3,3,-10,-2,12
44818247854,-2,4,-1,-1,0,-7,-14,-7
44818261268,-17,-3,1,-1,-4,0,-1,-30
44818261268,19,-7,0,5,4,19,-2,25
44818269389,17,-9,-6,-4,-5,6,29,1
44818269389,-19,1,10,8,2,21,-14,5
44818277951,27,4,3,-11,-8,-42,-6,-8
44818277951,-15,-1,6,-1,-1,-1,-1,-13
44818292064,-6,1,8,2,-1,4,12,-2
44818292064,2,1,-11,-3,-3,5,-13,7
44818298894,-9,-1,-7,-3,-6,3,0,1
44818298894,-6,3,-8,1,-3,-5,-19,-14
44818306275,-16,-2,-6,-3,2,-8,13,3
44818306275,30,8,-3,6,5,20,12,2
44818321319,-8,0,-3,-1,-2,-8,-8,2
44818321319,9,2,12,0,0,5,-17,-2
44818329683,-21,6,-6,1,-3,-16,-10,-22
44818329683,-7,-8,4,-3,-2,-9,7,-7
44818336426,-1,5,13,3,3,32,15,28
44818336426,8,-5,-1,-1,4,-1,10,9
44818352212,-18,1,6,0,-3,-10,-16,-18
44818352212,-8,5,9,0,3,-15,-37,-8
44818358934,20,1,-2,5,2,1,66,23
44818358934,3,-7,-15,-7,-5,8,1,-11
44818366446,2,-1,2,2,4,2,-16,5
44818366446,-8,-6,-11,-5,-4,-12,-11,-12
44818381348,-14,0,0,1,0,2,-15,-15
44818381348,-11,4,3,6,1,12,25,11
44818390322,21,-4,-6,-4,-3,-9,-9,13
44818390322,10,0,1,0,-1,12,5,-6
44818396455,5,-3,5,4,5,-4,-7,7
44818396455,1,1,3,-5,-6,-11,1,0
44818412058,-5,0,6,1,0,-3,-13,-6
44818412058,-8,-5,-3,-8,-12,-9,15,-5
44818418941,-1,-8,9,3,8,9,3,-13
44818418941,13,-11,-11,-2,-7,-5,-12,6
44818426323,-10,1,-6,1,-3,-2,-8,-15
44818426323,2,1,-8,-1,0,8,19,18
44818441318,-4,-3,-7,-2,-7,0,-9,-21
44818441318,-7,7,0,-3,2,-5,-14,-10
44818449474,0,1,0,2,2,9,-1,2
44818449474,12,-4,-5,1,2,4,11,6
44818456306,0,1,-4,-3,-4,-10,-28,6
44818456306,-6,1,6,5,1,1,4,1
44818471922,16,0,2,-4,-1,-9,12,6
44818471922,1,2,4,-1,-2,0,-3,-2
44818478754,1,6,10,2,1,1,-4,3
44818478754,-1,-4,2,0,2,-4,5,-3
44818494496,2,-2,1,-1,-3,3,4,-5
44818494496,-14,1,0,6,3,9,7,5
44818501296,5,-2,-8,-3,-3,1,-13,-7
44818501296,10,3,-3,-2,-2,-9,7,5
44818509463,-20,-2,6,3,2,1,-10,-1
44818509463,4,2,1,1,3,5,30,12
44818516270,0,1,-6,0,-2,7,-23,2
44818516270,5,-3,-6,-4,-2,-11,18,1
44818532868,-2,1,-5,0,-3,5,-25,-13
44818532868,1,3,2,-2,0,-6,15,-8
44818538801,-11,0,-3,-2,-1,-1,-2,-1
44818538801,-2,4,1,-1,-6,-9,-11,-7
44818555782,7,-3,2,2,4,-2,1,1
44818555782,5,-1,-2,-5,-4,-3,12,4
44818561285,0,0,-2,1,2,9,-24,-7
44818561285,-6,-3,-2,-4,-4,-3,20,-10
44818570323,3,-4,-8,-1,-2,3,6,6
44818570323,-2,9,6,1,1,-2,-14,-9
44818576286,-8,-4,1,0,1,-2,7,-3
44818576286,5,5,0,-1,-3,1,3,9
44818592813,-2,-2,-3,-1,-3,4,1,-1
44818592813,-8,3,-7,0,-2,-8,-8,-1
44818598774,5,1,-3,-4,-4,-13,-14,3
44818598774,-8,1,2,3,4,7,11,-5
44818615290,-13,-2,-3,-4,-6,0,5,-20
44818615290,23,4,1,3,3,7,21,30
44818621315,-4,-2,10,3,-2,6,-14,1
44818621315,6,-5,-11,1,0,-11,0,12
44818630310,-4,0,3,-1,4,-1,3,6
44818630310,-12,-11,-6,-3,-1,-8,-6,-9
44818636298,-3,2,-4,-4,1,-2,15,-4
44818636298,-2,-2,1,1,1,8,-13,-3
44818652809,-3,0,-5,1,-5,1,0,2
44818652809,3,-7,1,-2,-2,-3,-23,-10
44818658782,12,-3,-1,1,2,-2,29,15
44818658782,-3,4,3,0,0,10,-18,-3
44818675335,-4,-4,0,-2,-6,-4,-15,2
44818675335,-7,-3,3,-1,0,5,19,-10
44818681264,15,2,-3,1,3,1,-3,10
44818681264,-6,-3,-3,-2,-1,-2,-3,1
44818690294,5,0,2,0,1,1,3,0
44818690294,-10,0,7,-2,0,-15,-5,5
44818696304,-10,-2,-1,-1,-2,7,4,-12
44818696304,2,-8,-2,0,1,-2,-7,-1
44818713288,4,-1,1,1,-1,-4,1,7
44818713288,3,-1,-8,-2,-6,-1,-10,-1
44818718806,-3,8,-4,-3,1,-11,12,0
44818718806,1,1,4,0,-3,7,0,-4
44818735333,-9,-7,-8,-4,-2,0,5,-9
44818735333,17,5,-21,0,-1,2,-4,-2
44818741286,-3,1,19,2,0,0,-3,5
44818741286,-8,2,1,0,-6,-7,-18,-11
44818750298,-5,3,7,2,4,-1,38,5
44818750298,18,-4,-1,1,3,27,-10,14
44818756301,-3,-8,-12,-3,-6,-13,-19,-1
44818756301,-3,-2,-3,0,-1,-2,11,-8
44818780985,1,-2,-5,-2,-5,6,-7,-6
44818780985,-13,-6,3,2,3,-9,0,-4
44818781806,0,-1,-3,-2,-2,-7,-4,-4
44818781806,-3,0,9,1,4,6,1,3
44818793837,12,2,6,0,0,0,12,1
44818793837,-1,-4,5,-6,-11,-5,-7,-13
44818801324,-1,-2,5,5,3,-4,-10,-8
44818801324,0,5,3,0,0,-4,15,0
44818810293,8,0,-10,-4,-5,0,-13,4
44818810293,-7,-2,-6,-5,-4,6,14,1
44818823842,-6,-4,-10,-2,2,1,1,-6
44818823842,9,-5,-6,-1,1,6,0,15
44818832789,0,2,5,3,4,8,-6,-2
44818832789,-5,0,-3,1,0,-6,-8,-2
44818838832,-23,10,4,-1,-7,-4,-2,-16
44818838832,2,-5,-3,-2,1,-7,4,3
44818853777,2,0,4,-1,-1,-3,-19,-4
44818853777,1,2,12,8,7,15,56,-1
44818861327,11,-18,-5,-3,-2,6,-20,13
44818861327,-9,2,2,-4,-2,-11,-18,-7
44818876302,-1,-11,-4,-4,-5,-5,-4,-9
44818876302,-15,-9,-5,-4,-1,-3,-16,-6
44818883791,25,4,11,6,2,8,1,28
44818883791,-1,-2,-13,-4,-6,1,11,-12
44818892833,-12,-8,-8,-1,0,-4,-7,-1
44818892833,-1,-2,-2,-7,-4,-8,0,-15
44818898929,-2,-2,-8,1,-1,8,12,5
44818898929,-4,-1,-4,-1,-4,-8,-15,-4
44818913851,-7,3,3,7,4,4,5,1
44818913851,11,0,-4,-9,-6,-9,-15,-8
44818921433,-5,-3,1,0,2,5,32,-6
44818921433,6,2,0,1,-1,-2,-12,2
44818936495,-15,6,2,-1,0,-6,-2,-16
44818936495,13,4,4,5,3,6,-4,27
44818943998,-4,-4,-9,-6,-9,-9,-1,-22
44818943998,-1,8,2,-4,-2,-1,-3,2
44818952894,20,-1,-1,3,0,0,9,4
44818952894,-40,-4,4,3,-2,-1,-41,-17
44818958840,11,2,0,-6,1,-3,42,-2
44818958840,-6,-5,-5,1,-1,16,10,1
44818973946,1,1,1,-1,1,-1,-6,-3
44818973946,9,-7,-3,-1,-3,-8,-6,-15
44818981468,-23,-1,1,-1,-4,-2,-13,-17
44818981468,0,0,4,2,2,-3,4,9
44818996458,16,1,-5,-1,-2,-7,5,14
44818996458,-8,3,-5,1,-3,11,11,-2
44819003845,1,2,-10,0,1,-9,-28,-4
44819003845,13,-2,-2,-1,2,1,30,1
44819019497,2,1,-6,0,-2,17,-10,8
44819019497,-22,10,3,4,-2,-13,2,-4
44819020274,18,-6,2,-2,0,5,-1,-1
44819020274,-8,1,-4,0,-1,-4,-15,-9
44819033965,15,2,0,-3,2,-3,2,15
44819033965,-2,0,-3,-2,-4,0,3,-9
44819041431,-9,-2,-1,1,-2,2,-12,-2
44819041431,-5,-4,9,4,0,0,11,2
44819056491,-1,-1,-4,-8,-6,0,-10,-4
44819056491,15,-4,6,4,4,-4,-5,9
44819064039,8,3,1,-1,-2,1,15,9
44819064039,-7,2,-3,-5,-2,4,-17,1
44819079594,-18,-1,-4,3,1,6,8,-3
44819079594,13,2,-5,-10,1,-15,-13,4
44819080410,8,6,0,5,3,5,6,-5
44819080410,-2,2,6,6,8,14,21,38
44819093917,2,0,-2,-1,-4,-4,-13,-7
44819093917,-6,-2,-2,0,-2,2,13,-7
44819101470,-8,-2,1,-3,0,-6,-39,11
44819101470,3,2,4,-1,3,-3,52,-2
44819116551,-12,4,1,-4,-2,-4,-10,-4
44819116551,-12,1,3,2,0,-8,10,-2
44819123871,-5,0,0,-1,0,20,3,-1
44819123871,18,-10,-9,-10,-5,-23,-36,-20
44819139623,-9,4,0,4,1,6,35,6
44819139623,7,-6,-6,-1,-3,6,-20,6
44819140379,-12,3,-4,-4,0,-13,13,-12
44819140379,22,-1,-3,3,-1,4,-17,12
44819153908,-12,-6,-3,-7,-10,-19,-19,-22
44819153908,-2,-1,1,3,6,4,-13,1
44819161558,-2,-6,-5,-3,-9,19,70,-9
44819161558,3,0,-1,1,2,0,-29,-15
44819176450,2,0,1,-1,-1,-8,-14,-5
44819176450,-12,10,-1,1,-1,-3,0,-2
44819184069,-19,2,0,0,0,1,-4,1
44819184069,-8,-2,-6,-7,-12,-9,-4,-14
44819199645,8,2,3,4,6,-1,3,14
44819199645,-8,-2,-4,-1,-4,19,-1,-17
44819200307,9,10,-5,6,0,-4,3,15
44819200307,13,-4,-10,-12,1,-3,-14,-33
44819214058,-23,-5,6,2,1,-9,-13,2
44819214058,31,19,-8,-3,-9,9,51,13
44819221386,-11,-3,2,-4,0,-8,-57,5
44819221386,3,5,15,13,14,17,87,24
44819236387,-20,-4,-9,-8,-26,-1,-86,-11
44819236387,-1,-15,4,3,13,-11,15,-38
44819243888,23,-6,-4,-10,-12,-22,9,16
44819243888,3,-7,2,6,9,13,29,38
44819259699,12,3,5,3,6,-3,-12,19
44819259699,-17,-4,4,8,-2,-10,31,6
44819260386,23,-20,-14,-7,-17,15,-71,17
44819260386,-57,25,12,-15,1,1,66,-25
44819273943,11,-19,-5,-2,-6,1,0,-8
44819273943,-6,-4,-5,-1,-1,-38,-81,-6
44819281558,-14,-14,12,13,19,14,86,-16
44819281558,16,-18,-23,6,-13,39,-39,35
44819296388,7,-6,-16,-10,-1,-16,12,-7
44819296388,-36,44,27,-2,11,-10,-14,-45
44819303858,57,-16,-17,4,-3,-4,10,1
44819303858,14,-2,2,-2,-8,-11,-57,-1
44819319549,18,19,22,13,-2,-2,33,-12
44819319549,46,-30,-37,-16,1,-12,-47,26
44819320323,24,54,34,-7,15,0,45,0
44819320323,-25,29,18,7,-6,-14,-29,-28
44819335377,35,-27,2,5,14,2,0,53
44819335377,5,-14,-5,-1,-24,-26,25,5
44819341506,-54,25,-19,12,-1,47,22,26
44819341506,96,25,3,-22,15,8,15,69
44819356516,-8,20,-2,-1,-10,6,-12,-30
44819356516,-13,-12,-3,7,12,-3,-14,25
44819363943,-35,-8,-7,0,-13,-12,41,-32
44819363943,-69,28,-1,13,-3,-17,-50,-23
44819379647,5,70,27,-8,22,20,64,2
44819379647,15,-29,-2,-7,-5,18,-18,12
44819380303,20,-27,17,0,5,-18,-65,-39
44819380303,-32,-6,13,1,1,-5,43,0
44819395436,8,-54,-13,6,-15,-13,-9,-9
44819395436,-15,56,4,13,-16,68,59,0
44819401556,-25,64,21,-32,12,-32,-45,-39
44819401556,-2,-51,-45,-2,-23,-19,-33,-25
44819416478,-10,-19,-23,-2,-2,-20,-33,-17
44819416478,-18,-6,-8,4,-24,-5,48,12
44819423944,61,-78,-24,18,18,50,52,33
44819423944,101,-92,-72,-21,-14,1,-36,6
44819439609,-48,9,60,-7,-6,-5,27,-37
44819439609,-17,-26,-5,1,11,21,-8,-4
44819440387,-13,-5,-5,-3,-15,-39,-33,-9
44819440387,8,-21,11,8,-23,8,-23,63
44819453896,78,-58,10,6,51,14,27,-2
44819453896,-14,-36,20,-18,-25,-20,-14,-2
44819461559,-28,48,38,15,27,11,11,28
44819461559,-41,32,19,10,-7,21,27,-34
44819476538,15,24,-38,-18,-22,-26,-25,20
44819476538,-40,57,39,1,36,14,7,-12
44819483930,40,6,-37,-24,-24,-48,-21,19
44819483930,-31,36,-7,15,23,-28,-13,-18
44819499669,-17,-25,-39,11,-16,53,79,6
44819499669,21,-45,-68,-7,3,27,-87,15
44819500368,-21,-41,-28,4,-34,-13,27,-62
44819500368,88,-15,4,10,25,22,83,56
44819514034,-7,0,-67,-10,-8,19,-21,-18
44819514034,45,-86,-26,4,-2,-38,-7,33
44819521381,-7,-62,-35,-4,-30,-11,-67,11
44819521381,-44,23,89,-7,37,-20,6,-33
44819536443,-14,57,89,-5,11,43,17,5
44819536443,-12,48,76,11,25,19,2,38
44819552279,-7,-12,89,20,-31,-17,-35,18
44819552279,-38,-55,27,-13,21,-23,4,-21
44819559710,5,28,20,-18,14,-68,-62,-33
44819559710,69,38,-73,-2,-61,1,37,2
44819560359,12,33,-77,9,17,31,25,18
44819560359,-9,13,-47,4,-27,7,-12,-26
44819573889,-41,6,-56,-1,-14,18,-50,15
44819573889,-43,-30,52,-17,-16,-67,-75,-83
44819581530,95,31,-3,6,31,14,51,38
44819581530,67,72,-44,-2,-20,66,25,-4
44819596532,-54,15,17,-2,-14,-53,-59,1
44819596532,26,20,9,9,30,80,78,16
44819603952,-72,-24,-11,-10,-2,16,-57,-10
44819603952,-7,-2,18,-6,3,-68,-45,-16
44819619663,38,-5,-27,20,6,-1,3,1
44819619663,-6,1,-49,-11,-15,-3,37,-19
44819620361,79,-17,-37,2,57,38,14,15
44819620361,37,-48,-1,-3,-22,-32,-13,-20
44819634062,-9,76,97,28,-8,-36,-18,12
44819634062,-14,83,16,7,57,46,86,-16
44819641573,-31,30,3,-3,12,88,27,4
44819641573,-55,-38,18,-23,-21,-7,-46,-10
44819656485,81,-128,36,-7,-29,-60,15,26
44819656485,31,80,-28,10,12,-9,-8,11
44819664036,-81,-27,-15,-14,-46,-50,-11,-13
44819664036,-42,-34,-20,22,72,28,18,-4
44819679727,14,-82,36,-21,-68,-44,-8,26
44819679727,10,-17,-63,-18,-31,-114,6,5
44819680384,-11,-1,-14,6,27,45,-20,-23
44819680384,-45,47,-83,-4,-17,49,27,22
44819693955,-37,-11,-70,0,20,58,90,-19
44819693955,-111,-15,-27,0,2,100,11,10
44819701577,16,-81,119,-10,-54,-117,-87,10
44819701577,-81,12,33,9,3,4,-7,-6
44819716432,10,127,-26,12,36,36,-5,-8
44819716432,-22,69,66,6,6,-11,9,-7
44819724082,-21,114,17,0,34,68,40,3
44819724082,99,-10,90,-8,-23,-44,-27,2
44819738920,-40,-2,-32,13,38,-5,11,-10
44819738920,-3,17,-7,13,5,-27,-46,6
44819747266,-69,127,-104,5,-6,-8,26,-18
44819747266,2,98,-69,2,16,30,105,0
44819753886,-45,51,-80,-13,-28,33,-32,11
44819753886,119,-93,9,-17,13,-20,-28,-3
44819761550,33,-2,-32,-11,-7,-37,-22,1
44819761550,-36,-51,31,5,-11,-21,49,2
44819776574,-98,77,-43,0,21,78,30,-8
44819776574,50,-66,96,-2,-37,-35,-54,-8
44819783963,78,-60,39,20,34,20,44,-16
44819783963,-45,112,-47,-21,-22,10,-69,2
44819799013,74,118,66,6,-9,-26,7,12
44819799013,-45,88,96,-15,-10,4,-13,-4
44819807278,32,-36,127,-13,-44,-97,28,4
44819807278,71,95,24,32,39,61,11,-7
44819814071,-113,59,-110,-36,26,61,15,-7
44819814071,85,-64,-77,-27,-11,-54,-23,-10
44819821472,-55,121,-128,42,1,13,-17,-10
44819821472,-46,101,-124,-11,-20,-30,-68,7
44819836556,33,27,-70,51,23,4,86,-17
44819836556,-55,-82,-102,-12,67,14,-57,-2
44819844103,-41,-78,-43,-37,-35,34,31,4
44819844103,-18,-128,53,-1,-14,-31,-46,1
44819859093,80,-53,79,-8,-22,-51,58,20
44819859093,31,31,31,20,-24,49,-68,-6
44819867292,-20,-111,47,-3,8,-8,86,0
44819867292,39,-83,49,5,21,31,-70,-19
44819873920,-75,-33,20,-13,-49,-45,76,2
44819873920,-11,31,31,22,24,13,29,-12
44819881416,-75,127,98,2,24,-1,-116,8
44819881416,-63,115,120,-3,-13,0,7,-2
44819896468,-19,-75,127,-10,-8,30,28,11
44819896468,-8,43,126,-8,-43,28,-42,14
44819903934,127,-68,-44,-14,-26,-88,26,7
44819903934,46,28,-115,19,47,48,37,-7
44819919042,-13,42,-110,0,26,22,-128,-8
44819919042,-47,90,-128,38,37,5,127,11
44819927302,-51,73,-105,-55,23,20,13,-2
44819927302,29,-13,-82,10,-46,-42,-29,1
44819942795,-42,-38,-19,72,54,-46,18,-26
44819942795,-31,127,-50,2,-4,51,-4,-1
44819943373,-73,127,36,5,22,38,-99,-15
44819943373,61,32,98,-70,-88,-60,36,20
44819956571,82,-27,98,2,23,-2,-128,1
44819956571,-54,61,89,16,1,-79,-62,8
44819964044,-87,99,102,21,19,17,127,5
44819964044,-79,127,24,-4,9,86,-128,-31
44819979068,-98,81,-13,-28,-41,22,-115,1
44819979068,74,-14,-43,-41,-37,-74,16,9
44819987250,70,-98,-119,18,29,9,-73,-2
44819987250,12,-78,-102,10,1,-20,-61,13
44820002220,86,-22,-59,16,20,44,99,-17
44820002220,-13,-128,-13,-28,1,26,-27,-12
44820002904,-54,-92,1,-7,-66,1,-54,55
44820002904,101,-46,65,-34,-47,-93,48,0
44820016575,-39,88,41,-5,10,11,2,-1
44820016575,-75,127,49,21,39,22,-1,-22
44820023931,-33,102,54,-20,-25,-14,-1,-31
44820023931,-24,46,41,7,21,14,39,-3
44820038951,-33,109,31,0,-3,-15,10,2
44820038951,43,29,70,0,-7,-8,-55,-17
44820047230,-85,3,86,27,22,10,-7,1
44820047230,-128,-98,122,-11,9,8,15,4
44820062252,-49,42,127,8,-13,25,-13,7
44820062252,48,-128,96,-30,-40,-36,24,26
44820062906,73,-28,-83,-21,-22,-56,-91,-5
44820062906,8,-5,-111,13,29,37,96,-4
44820076494,8,-112,-66,-11,12,28,15,19
44820076494,55,-128,-4,-20,-41,-2,11,2
44820084091,75,69,-69,14,17,22,-47,-26
44820084091,127,-51,-103,-1,-16,-56,12,-6
44820107952,-55,52,-128,-1,26,-31,-13,-2
44820107952,-128,127,-128,23,26,23,20,0
44820108530,-76,127,28,10,20,13,26,14
44820108530,-128,107,79,24,38,31,-28,3
44820122118,127,-11,10,-17,-29,-15,9,6
44820122118,111,-81,77,3,-5,-36,-45,-11
44820122863,-57,6,-37,28,29,12,41,-2
44820122863,-128,44,-68,5,29,14,-5,10
44820136559,-128,80,-99,-34,-11,-5,-7,1
44820136559,-128,81,-81,60,0,25,21,-3
44820144071,-97,-44,-12,-6,-18,-6,-66,-2
44820144071,59,127,39,-4,-13,-7,102,4
44820159100,53,84,113,-9,4,-31,-23,-5
44820159100,8,-90,84,-20,10,42,-14,-9
44820167263,-82,-108,121,-13,-21,-4,10,7
44820167263,102,-128,117,-32,-58,-41,-39,19
44820182241,95,53,67,8,24,14,-17,12
44820182241,77,5,9,-12,-4,16,64,92
44820182946,32,-89,39,-2,-1,11,1,-33
44820182946,-124,16,-23,2,12,47,2,-50
44820196552,111,-128,12,-32,-63,-64,4,-35
44820196552,63,127,33,6,24,-15,-40,-67
44820203960,26,127,18,-6,17,0,11,-32
44820203960,-78,127,-2,29,41,-7,-21,1
44820219015,-128,96,-1,5,6,19,-12,11
44820219015,-128,-43,-55,4,-18,7,6,30
44820227306,105,-103,1,-12,-3,2,21,24
44820227306,68,-116,80,-15,-40,-32,-34,-5
44820242210,39,-128,53,8,4,4,0,5
44820242210,51,-59,1,-13,-2,10,-2,-8
44820242938,-18,-45,-72,5,11,18,27,-4
44820242938,-50,-76,-112,-6,-50,-25,-37,26
44820256436,-82,101,-81,22,56,29,90,-1
44820256436,-18,-32,-39,-2,-25,-61,27,7
44820263854,70,-68,-46,10,18,21,14,6
44820263854,-41,-101,5,1,19,27,-53,-5
44820279042,29,-93,41,8,-15,-22,5,24
44820279042,-53,-96,17,-19,-16,30,-34,-20
44820287128,-20,28,38,1,-1,7,39,2
44820287128,127,72,26,-12,-16,-20,11,30
44820302257,36,-14,13,-4,-15,-21,-35,-19
44820302257,-11,127,-12,13,34,20,25,-9
44820302837,44,24,7,-15,-28,-24,-36,6
44820302837,-18,3,-2,-2,13,4,13,-6
44820316545,-96,8,-46,-6,-17,2,-23,-4
44820316545,10,127,-27,0,7,-10,-6,-2
44820324040,-1,-41,17,-1,-4,7,23,-8
44820324040,-39,-4,1,16,16,11,3,-8
44820339072,-4,89,-44,-24,-32,-14,1,3
44820339072,21,-44,11,3,20,3,-8,-11
44820347268,-90,127,1,10,7,9,-12,3
44820347268,105,94,-12,-11,-13,-31,24,-1
44820362171,30,52,14,16,35,30,-15,-19
44820362171,-24,73,-12,11,3,34,10,18
44820362918,45,-53,-9,-33,-48,-57,-32,5
44820362918,-65,-34,0,11,32,29,60,-12
44820376513,-63,73,-28,-8,-17,-19,-10,-9
44820376513,100,-9,23,-4,-19,-18,45,-11
44820384095,-47,1,12,18,30,34,10,-12
44820384095,125,-42,13,-23,-34,-29,-37,12
44820399067,-19,-128,27,-3,13,11,-14,2
44820399067,-128,-105,-21,27,41,52,13,-13
44820407147,105,56,1,-48,-103,-91,-33,2
44820407147,-18,-65,12,12,27,-15,7,-13
44820422242,-61,-31,13,6,13,29,2,4
44820422242,-110,-21,16,-29,0,22,26,5
44820422938,73,-59,47,6,-50,-35,-5,9
44820422938,-36,109,-17,21,48,9,-43,-14
44820436596,-29,34,8,-1,2,16,24,3
44820436596,79,46,-26,-29,-23,-50,-44,10
44820444177,-116,-34,-3,36,69,80,25,-6
44820444177,-60,82,-23,-14,-38,13,11,4
44820459119,115,-37,33,-9,-22,-75,-32,-3
44820459119,0,95,-8,19,24,18,-9,-1
44820467270,-9,-60,8,-2,6,-4,11,9
44820467270,-119,127,-23,22,35,54,3,-9
44820482234,82,-34,-34,-30,-67,-28,6,18
44820482234,-97,69,-20,13,17,12,-19,-7
44820482936,-71,9,29,-4,-4,-39,0,-3
44820482936,-9,55,-55,7,1,-5,24,-2
44820496650,-82,114,-8,-19,5,50,-1,11
44820496650,-15,-81,38,9,-32,-50,-26,-8
44820503994,21,127,-59,23,62,29,-21,19
44820503994,-124,44,-32,12,32,69,44,0
44820519035,89,-128,65,-45,-83,-71,-21,9
44820519035,-66,127,-11,57,68,16,-1,-23
44820527304,-125,127,7,16,22,27,12,-8
44820527304,53,-71,39,-30,-33,-51,-42,9
44820542102,-3,12,-45,36,48,45,27,-1
44820542102,-54,69,-7,-27,-20,12,1,2
44820543039,26,66,9,-5,-9,-3,11,-3
44820543039,86,-79,13,-16,-40,-66,-9,-2
44820556520,-81,84,16,52,61,63,5,-19
44820556520,100,-21,-36,-40,-52,-31,1,15
44820563992,95,-20,63,15,-26,-26,-16,0
44820563992,-23,69,-9,14,18,22,-7,-13
44820579050,-21,67,5,15,25,-9,7,1
44820579050,7,57,-51,-32,-44,1,25,-1
44820587175,30,39,18,-6,34,20,0,-13
44820587175,-29,7,34,15,-15,9,-10,8
44820610386,94,24,-1,-3,-39,-59,-34,-12
44820610386,-107,-66,14,27,68,53,45,-6
44820611112,-64,-107,-42,-23,-18,29,-21,-22
44820611112,93,78,-19,-37,-52,-60,-26,21
44820616607,21,-21,-13,37,32,-3,25,-24
44820616607,-8,-70,14,-4,14,-1,38,12
44820624728,85,-74,-73,0,-1,16,-34,-5
44820624728,-45,41,-84,7,5,24,-37,-13
44820638997,-99,-61,-51,-10,16,29,64,6
44820638997,-41,-6,21,-11,-29,-3,-21,-4
44820647242,-18,63,100,29,9,-18,13,19
44820647242,71,-59,117,-7,8,-20,3,2
44820662206,-19,6,93,-20,-12,-19,-33,11
44820662206,-80,96,33,-8,-1,-16,-64,-10
44820662961,-93,74,-48,12,32,59,90,11
44820662961,-34,41,-48,-6,-29,-12,-38,8
44820676596,52,115,-100,-12,14,-2,-74,4
44820676596,-24,96,7,20,10,-3,80,3
44820684737,92,49,-67,-24,-25,6,-19,-5
44820684737,42,-25,-18,-8,-5,18,-99,-8
44820699018,-104,27,-36,4,8,19,19,-1
44820699018,91,97,-120,-18,-13,-38,-46,5
44820707217,-40,123,-126,-10,-23,-38,18,-3
44820707217,32,-104,-59,7,8,-12,71,21
44820721413,-12,17,85,-3,13,18,-7,-18
44820721413,32,-120,127,10,-2,15,6,9
44820729720,-52,50,127,-19,5,9,-17,5
44820729720,-64,127,127,16,24,-5,79,-13
44820736459,127,30,10,-20,-58,-37,13,8
44820736459,-33,-56,-17,8,12,-9,-73,-8
44820744553,-30,23,-54,13,28,32,86,-14
44820744553,-63,-58,-38,9,4,26,-77,-4
44820759089,-76,127,-58,0,7,-2,61,2
44820759089,0,-37,-87,-18,-31,-11,-21,-2
44820767273,98,-92,-62,-5,-10,-30,-60,15
44820767273,-35,-117,-36,15,43,42,60,-31
44820782103,0,19,-54,1,-7,17,-19,0
44820782103,64,-80,43,-10,-5,-18,-25,-2
44820789637,-73,-14,99,14,14,8,23,1
44820789637,-2,-79,104,1,-31,-36,23,11
44820796506,-53,58,57,3,21,13,-37,-5
44820796506,93,-13,26,-7,-16,-10,47,10
44820804674,-8,-17,-9,-9,7,17,-56,-24
44820804674,-2,50,-8,5,-18,-18,-9,34
44820819075,101,-118,-17,-3,-24,-18,12,-7
44820819075,-14,37,-30,3,15,19,-30,15
44820828010,-16,63,-17,3,3,-29,-28,4
44820828010,19,59,-68,-7,11,18,69,-4
44820841599,-111,-61,-90,-7,18,42,-62,-18
44820841599,40,8,-35,-8,-76,-46,10,3
44820850488,60,-115,-39,13,29,-21,-11,-6
44820850488,23,127,-74,0,-14,39,3,-9
44820856606,127,26,-3,3,26,-28,-10,0
44820856606,-90,35,48,-4,41,63,23,-8
44820872985,-110,114,23,-10,-57,-38,-11,1
44820872985,27,75,62,1,-20,-43,-16,-5
44820879092,-39,-24,94,13,25,28,19,3
44820879092,-62,118,-9,2,12,15,-3,-1
44820895619,15,55,27,-11,-23,-12,-19,12
44820895619,-58,51,22,-3,25,1,-11,-14
44820901609,-41,-55,10,2,-4,17,105,11
44820901609,40,-81,-55,5,0,7,-68,6
44820910441,43,68,-16,-8,-10,-37,-15,-10
44820910441,-1,53,-17,2,15,24,61,11
44820924116,5,-78,-28,-6,-9,10,-78,1
44820924116,-6,101,47,16,14,11,123,-1
44820941129,-27,-31,32,2,6,19,-45,-4
44820941129,6,87,-23,-16,-14,-42,-60,-5
44820942124,26,-69,64,10,-14,-33,-60,-12
44820942124,42,36,-25,3,16,22,76,-2
44820948105,-21,-53,-11,2,-19,8,-52,21
44820948105,-47,88,-35,-12,3,-8,26,-1
44820961636,-47,52,-3,12,-3,2,-30,12
44820961636,6,11,4,-7,-2,-14,-79,-7
44820970473,-9,-26,34,-4,6,-14,87,-32
44820970473,9,-118,16,5,14,29,-17,11
44820984820,-53,43,-22,1,-8,-8,38,39
44820984820,-2,46,8,-10,-14,-14,-6,0
44820991635,54,67,-22,-2,-8,-10,-26,-20
44820991635,-25,8,-12,9,15,4,-33,0
44820999117,27,62,29,-6,-6,6,110,21
44820999117,-11,-43,-19,7,5,20,-124,15
44821008002,30,61,-10,-24,-38,-44,-24,5
44821008002,-25,11,-2,0,10,20,39,42
44821021449,4,23,5,-6,-18,-12,-51,-9
44821021449,-42,-57,15,-2,-5,-34,-4,-36
44821030472,-33,-66,11,11,28,19,48,17
44821030472,84,-38,-18,-12,-28,13,40,32
44821044864,4,-37,-55,-8,12,48,-51,9
44821044864,25,-13,-44,-6,-14,-20,-79,-2
44821051482,-21,11,-30,4,9,-24,-97,-35
44821051482,-96,19,15,11,18,-19,-76,-86
44821059095,29,79,-68,-15,-35,-11,120,64
44821059095,9,79,-18,-6,1,30,-125,22
44821075470,-7,16,-15,5,5,-4,-25,5
44821075470,26,-59,41,-7,10,-14,-73,-40
44821081592,-38,54,121,-2,-8,-73,-126,-70
44821081592,-20,32,52,16,10,-25,103,27
44821090473,-18,49,-26,-9,-9,25,127,96
44821090473,23,6,-16,-3,-8,-17,-127,-45
44821105369,5,25,-25,-8,-5,38,-91,-57
44821105369,-29,49,-5,8,18,81,66,52
44821106996,20,-65,-20,4,30,70,46,32
44821106996,-17,-83,-51,8,4,99,-56,-9
44821119062,41,-45,-70,6,11,-38,33,-7
44821119062,10,1,-45,-5,2,-21,-61,-42
44821127912,22,-15,-12,-7,0,36,26,-5
44821127912,-8,-46,10,-16,-7,29,78,21
44821141647,15,-90,86,16,-13,-20,33,36
44821141647,42,-4,28,-10,-26,-12,-41,-7
44821150490,-26,9,51,-2,-9,-32,28,-11
44821150490,1,-34,77,4,-6,-41,-66,-9
44821172838,-66,-44,48,1,3,8,-6,-74
44821172838,13,-57,-19,13,6,-39,49,54
44821174486,54,-21,-47,-5,-16,1,13,15
44821174486,3,44,14,11,21,-10,-48,31
44821179214,-20,30,-35,1,2,-5,-48,-31
44821179214,-10,-104,17,-3,-4,-41,14,-53
44821187990,-31,11,-27,-13,-3,43,4,-30
44821187990,41,42,-54,6,8,12,127,72
44821201498,22,16,-48,3,-4,15,-25,16
44821201498,-37,28,39,0,4,-15,-12,-8
44821210529,-23,32,31,1,3,-16,-79,-32
44821210529,17,14,7,-5,-13,-29,38,-2
44821225359,8,3,-13,-6,11,26,16,30
44821225359,6,-2,-3,-3,-8,11,-1,-11
44821226975,4,11,-15,0,3,-21,-21,2
44821226975,-14,-7,2,9,11,31,73,49
44821239124,31,26,-25,-10,-11,-40,-71,-15
44821239124,18,-1,-14,-16,-5,-2,-5,-11
44821248042,-4,-16,15,5,-1,-14,-63,-50
44821248042,5,-38,13,2,5,-3,1,-6
44821261621,5,2,19,10,6,24,107,46
44821261621,24,-4,16,-19,-13,1,-67,-20
44821270532,20,17,2,-9,-2,-33,-3,7
44821270532,-21,7,10,4,2,15,24,4
44821285466,-12,23,1,-2,3,-5,-21,-13
44821285466,10,21,27,12,5,-1,18,4
44821286965,-16,1,2,-6,0,14,-55,-20
44821286965,7,16,10,-4,-2,-25,60,15
44821299147,-32,-40,-5,-7,-7,12,-53,-13
44821299147,-24,-15,-8,1,-6,-3,-34,-50
44821308048,-17,-3,5,21,17,40,92,56
44821308048,33,-30,-44,-23,-14,-39,-106,-9
44821321486,-11,-16,-22,-1,9,7,83,40
44821321486,-27,58,-36,-2,-15,-4,-82,-19
44821330621,-1,27,24,5,10,-26,-3,3
44821330621,-32,8,30,-2,-10,3,-32,-63
44821345522,17,-33,-1,6,2,5,15,34
44821345522,4,4,-3,1,9,4,36,12
44821347098,6,27,1,-2,-7,-9,1,-17
44821347098,10,21,26,2,3,-8,-35,-8
44821367823,-23,-2,24,-12,-8,-7,-91,-54
44821367823,-5,16,-32,14,7,19,127,90
44821369383,2,-9,27,11,9,20,-128,-16
44821369383,-24,-13,-21,-6,-9,-13,-38,-24
44821381463,-26,25,6,-2,0,-9,-7,-33
44821381463,-1,12,24,-5,-3,-2,-59,-32
44821390495,4,-3,-58,2,-1,11,124,43
44821390495,36,-13,-2,0,2,14,-22,15
44821405404,-7,18,-13,4,2,3,11,16
44821405404,12,-33,23,0,-3,-3,26,-24
44821407044,-24,-18,-3,-5,-6,17,-59,-27
44821407044,-7,36,44,10,-5,-21,0,-4
44821419095,30,12,-80,-3,8,14,18,7
44821419095,3,-17,13,-4,-5,-15,-42,8
44821427999,17,-39,49,-7,-12,-3,11,-33
44821427999,-23,3,-25,-1,-4,6,9,-14
44821441544,18,9,-20,15,17,-3,44,38
44821441544,33,5,-95,-12,3,21,38,37
44821450498,-70,6,50,-1,0,-16,-59,-18
44821450498,-5,-7,85,-16,-17,2,2,-26
44821465486,22,41,18,-8,-10,-17,-13,-8
44821465486,22,14,15,4,9,-11,1,10
44821467122,30,-5,-124,8,13,-16,36,25
44821467122,-15,-2,8,12,12,12,-19,2
44821479197,-38,-8,106,-10,-16,11,-2,-2
44821479197,-16,-47,93,-21,-17,-10,-29,-51
44821488001,70,4,3,16,22,19,93,67
44821488001,-7,12,-22,-9,-10,-17,-50,-12
44821501612,-16,-8,-12,10,1,15,13,8
44821501612,9,-11,31,7,4,22,-68,-33
44821510519,-72,10,40,-12,-8,-19,48,-4
44821510519,36,-36,-101,3,8,15,-14,-4
44821525518,-12,0,10,-13,-13,-14,-15,-27
44821525518,-46,6,44,15,1,2,-6,15
44821527059,37,-45,-91,-14,-6,-3,11,-10
44821527059,-5,94,57,21,24,19,2,25
44821539025,4,70,-5,-22,-32,-11,20,5
44821539025,15,-4,-3,9,13,-16,-15,-26
44821548039,-2,8,-13,-3,0,3,-64,23
44821548039,-20,-22,4,-5,-14,2,66,6
44821561516,-77,65,-38,8,7,27,-51,-14
44821561516,101,-32,53,-15,6,-35,42,-4
44821570494,57,-22,38,5,-6,-3,-17,1
44821570494,12,-2,-14,-3,1,-2,-35,-3
44821585470,-3,-45,3,14,8,-4,19,-1
44821585470,10,2,-61,0,3,39,71,39
44821587099,3,-54,-21,-30,-16,-7,-93,-10
44821587099,28,-35,-3,0,2,-8,60,0
44821599220,20,-55,-8,-4,-10,-12,-16,15
44821599220,-31,28,-18,13,7,14,-23,-6
44821607967,-10,47,-4,6,0,-1,-7,9
44821607967,-10,28,20,-16,-6,-23,27,14
44821630528,66,44,13,-6,1,-23,-6,8
44821630528,-42,-27,-56,5,2,5,-6,9
44821631996,-78,24,38,15,4,34,-60,-24
44821631996,-69,-16,32,10,3,-20,95,-33
44821644812,23,-70,-38,9,21,20,-68,-5
44821644812,-21,39,15,-3,-9,0,35,-11
44821651648,8,18,18,2,1,0,-15,12
44821651648,-9,-49,-17,-6,-6,2,18,8
44821659145,-2,-29,-8,0,6,16,11,-2
44821659145,-14,-24,-4,-1,3,-16,9,-10
44821668096,-40,-11,-5,-11,-17,-4,20,-15
44821668096,13,39,-23,4,16,-1,-43,6
44821681628,-1,11,-4,3,-15,-3,35,7
44821681628,18,-31,-3,-7,-1,-3,-27,1
44821690492,28,48,31,0,14,0,47,-18
44821690492,-10,21,-36,-1,-15,29,18,-2
44821704707,64,-54,33,7,23,-29,-9,-25
44821704707,-83,-10,25,5,-3,3,26,14
44821711642,5,26,-9,-9,-16,-18,-16,-29
44821711642,21,27,-3,6,15,10,-20,2
44821719144,-66,36,-12,0,-12,-6,23,-18
44821719144,-46,-8,-25,8,-11,22,-20,37
44821728022,44,36,19,2,9,2,25,2
44821728022,-1,-11,-10,-1,1,-3,12,40
44821741588,11,45,20,-1,4,6,-7,36
44821741588,35,5,22,-5,-3,-23,-5,3
44821750489,-13,-13,-7,8,5,-3,16,4
44821750489,-21,9,8,-5,-6,9,-61,2
44821764738,-15,-8,2,-5,3,-7,51,-23
44821764738,14,38,-12,5,3,4,-28,1
44821779686,-2,-18,6,-3,-8,10,32,-5
44821779686,-24,-2,-30,-2,-3,15,-28,3
44821780433,18,-25,11,-12,-4,-19,-9,-24
44821780433,-12,37,29,-1,-3,-10,-3,-23
44821787959,15,-25,3,21,12,16,49,21
44821787959,-8,-15,-28,-8,0,-1,-25,-17
44821801496,-71,62,-57,-11,-18,10,7,24
44821801496,78,108,-7,-10,-18,-29,12,0
44821810469,-20,33,-58,-3,-4,-23,-50,-18
44821810469,-17,12,18,17,10,15,-38,-19
44821824388,-33,-4,-29,-4,0,37,78,-6
44821824388,-8,-58,25,3,1,10,-55,3
44821833020,-1,-28,19,-6,2,-7,14,14
44821833020,66,-9,7,-14,2,-25,8,-25
44821847937,27,-8,53,6,9,-16,-65,-5
44821847937,-32,-17,-33,-2,-90,-5,-40,-14
44821849554,-15,0,54,0,83,-15,54,-13
44821849554,-14,-4,-45,-20,21,36,-24,41
44821861502,13,7,-17,-12,-38,-3,17,-33
44821861502,-10,5,-29,12,0,11,4,-15
44821870520,-40,1,-26,2,-30,-12,-58,-7
44821870520,53,-71,35,3,-21,-27,8,-63
44821884819,108,-67,-11,0,17,12,-1,32
44821884819,11,-37,-55,-5,0,32,33,-3
44821891615,-34,47,-40,-4,-89,12,-16,-19
44821891615,-10,15,29,-3,116,2,26,27
44821907869,-34,-22,57,13,-46,-19,-35,-25
44821907869,-7,-28,46,10,26,-51,0,-12
44821909470,6,-41,41,11,16,13,46,26
44821909470,-3,-22,37,-24,-128,7,-18,-5
44821921535,-60,-7,23,-2,79,26,-7,-12
44821921535,10,-80,8,9,26,-9,-28,-5
44821930544,33,47,-11,-8,-90,52,90,-10
44821930544,-17,95,17,25,-3,-44,-10,10
44821944912,-2,53,8,-27,34,-3,12,45
44821944912,-17,-52,-3,-10,4,-2,15,10
44821951603,27,75,-39,15,57,22,-42,-34
44821951603,6,-21,-31,14,-8,-12,20,2
44821968049,26,-27,28,18,-15,40,-11,-31
44821968049,2,52,-93,-13,43,59,40,14
44821969460,26,4,-13,-22,-53,-13,-54,-5
44821969460,21,-30,-29,8,33,117,3,-12
44821981618,-54,78,-49,-2,-15,-7,11,-3
44821981618,67,71,31,8,-4,-91,44,76
44821998038,-20,-67,32,-11,9,-89,-46,-15
44821998038,-47,127,-2,-12,-34,-77,32,12
44822004733,1,41,7,5,3,-28,-32,-12
44822004733,-28,-32,35,10,13,76,-6,-17
44822011620,-21,49,-7,-17,-22,-54,57,20
44822011620,29,-78,27,16,16,-18,-24,16
44822027960,-21,24,-14,-4,-12,72,15,34
44822027960,-39,53,-13,2,14,4,9,-17
44822029519,-53,-49,47,8,7,-70,-36,-21
44822029519,-23,8,-20,-8,-17,27,35,-39
44822041615,26,48,-29,-4,-12,-47,-13,35
44822041615,12,-27,22,-8,2,36,1,-5
44822050555,1,-1,-25,-5,-6,68,-35,-9
44822050555,-24,-7,-3,-4,-3,-8,15,-14
44822064836,-7,-85,-12,13,-1,75,-4,7
44822064836,36,81,-34,-28,-52,-85,52,-13
44822071585,-12,103,34,16,38,33,-49,7
44822071585,41,78,-46,-16,-3,-45,26,-5
44822087952,70,47,3,8,5,0,-25,6
44822087952,-45,50,-37,-11,-6,55,-12,-14
44822089443,35,-83,53,-6,-27,-22,-24,-16
44822089443,62,33,47,26,33,-41,70,46
44822101649,-92,45,-2,-16,-18,20,-11,20
44822101649,-7,4,25,0,12,6,15,-7
44822110526,79,-67,53,3,1,-57,-11,0
44822110526,-43,63,-17,-8,9,12,-19,28
44822124845,56,-37,46,6,2,-68,11,-30
44822124845,3,25,27,4,9,-3,-48,9
44822131647,-59,21,-39,7,28,80,47,21
44822131647,-69,-66,23,-13,-51,-44,-60,-56
44822147860,75,50,21,11,16,-23,20,39
44822147860,9,-3,-3,-15,-20,2,-17,-15
44822149537,16,39,-34,5,19,36,-9,1
44822149537,-56,-1,-35,-2,-11,-5,-13,9
44822161742,21,-50,-25,-9,3,42,-28,-17
44822161742,26,-107,-31,-1,-19,-36,16,-4
44822170499,22,85,6,3,9,7,6,28
44822170499,49,2,-56,-7,-19,10,-28,-2
44822184756,-58,-98,44,16,25,14,5,-33
44822184756,-23,92,5,1,-14,12,81,29
44822191665,-2,7,-58,-11,0,-18,-3,-2
44822191665,-48,25,11,-2,-3,20,-59,0
44822208006,-33,9,23,1,-40,-28,67,-7
44822208006,-108,84,34,13,100,63,-89,-17
44822209506,89,-54,46,5,-16,-47,106,26
44822209506,69,79,51,21,25,3,-55,-2
44822221531,-44,127,-34,2,-34,1,-7,-9
44822221531,-17,80,-9,3,15,2,-9,-23
44822230532,-25,25,-69,-8,61,52,-84,-5
44822230532,18,-77,-10,-34,-78,-11,72,11
44822244899,59,-92,-49,-39,-59,-34,-103,-5
44822244899,26,-52,-60,20,29,-9,118,-12
44822251690,29,-56,-40,17,48,10,-115,2
44822251690,11,-5,-8,3,-26,-24,24,-14
44822268048,-27,127,-77,11,18,-29,25,26
44822268048,1,48,-61,-14,-54,-56,-34,-5
44822269466,-70,-43,-27,6,6,-110,-56,-11
44822269466,-47,-13,60,-19,4,100,59,-1
44822281660,47,-38,116,-3,-18,54,-6,25
44822281660,-10,-27,127,-5,5,0,-47,-8
44822290483,-63,-49,74,-3,-14,37,13,-17
44822290483,-40,-25,90,13,24,-6,-8,5
44822304720,-40,-95,53,18,15,25,43,-14
44822304720,14,3,9,5,13,-83,23,26
44822311546,8,127,-48,-7,-36,53,-10,-11
44822311546,0,18,-114,29,39,80,1,5
44822327887,-41,55,-128,-19,28,43,38,-9
44822327887,-5,-128,-22,-2,-50,64,-49,9
44822329538,-22,65,-81,-76,-63,-58,35,14
44822329538,-25,110,-33,71,35,-61,0,-1
44822341662,2,127,-65,14,30,31,-18,-14
44822341662,39,-16,56,-28,-52,-6,5,-1
44822350614,47,30,92,32,28,-59,76,19
44822350614,69,-73,25,-50,-35,36,-19,-5
44822364839,-3,-13,112,34,41,-47,-50,-27
44822364839,-36,-115,48,-3,4,-23,-27,-6
44822371587,-27,39,-4,14,0,30,55,10
44822371587,87,-2,76,-8,10,63,-6,-19
44822387965,-29,-58,1,7,6,3,-4,-2
44822387965,21,127,-85,-32,-23,39,-40,-4
44822389669,6,101,-3,27,25,-9,87,-12
44822389669,-14,48,-63,-14,-12,-53,-80,1
44822401726,-4,-73,16,-12,8,11,101,0
44822401726,27,82,-94,15,-7,-3,-2,-1
44822410577,60,96,-25,-15,-2,58,-41,15
44822410577,4,66,-42,18,6,-58,-12,6
44822424900,41,38,-26,-17,-8,-33,10,-6
44822424900,-128,65,-8,46,44,-47,37,-16
44822431536,9,-128,45,-32,-103,38,-19,15
44822431536,-39,-71,62,-19,9,-14,-29,5
44822447964,17,106,20,28,31,-36,-11,-8
44822447964,-88,-3,-29,-16,-10,-10,20,6
44822449668,-86,61,-41,15,27,-6,-45,-10
44822449668,-78,64,9,9,31,-9,63,-3
44822461554,32,-24,-3,-44,-100,41,-76,21
44822461554,72,87,-21,19,44,-9,-25,-3
44822470598,-15,47,-19,16,7,-28,64,-2
44822470598,-33,-6,-60,-11,13,-37,-14,-1
44822484962,-33,11,-2,13,25,-12,-21,1
44822484962,16,122,-46,-12,-30,25,63,-7
44822491636,114,7,61,-11,6,37,-43,-15
44822491636,-41,105,-26,-5,-8,-41,-48,-2
44822508020,-14,46,43,27,59,41,111,12
44822508020,3,1,1,-1,-14,24,-9,5
44822509566,-73,79,-58,-9,18,-48,-92,0
44822509566,109,-111,96,-7,-57,92,127,-1
44822521553,-19,59,27,-18,-19,-103,-128,-5
44822521553,15,-63,119,17,1,-8,68,12
44822530513,-15,0,1,15,35,56,73,-4
44822530513,-40,95,-116,-24,13,69,-17,-3
44822544789,-22,-77,-44,-35,-101,-17,-43,22
44822544789,27,106,-45,-3,28,14,-95,0
44822551581,-97,-84,-16,-2,-7,-54,-11,-3
44822551581,-6,70,19,23,38,1,22,13
44822568008,35,-84,-39,11,25,-29,37,2
44822568008,-19,88,38,17,-5,13,-46,0
44822569571,109,41,17,-12,-18,27,-36,-9
44822569571,-1,-73,0,2,10,-46,-18,-9
44822581671,-58,38,4,-3,4,-10,127,11
44822581671,-34,35,-38,-3,28,-24,15,-26
44822590509,47,-36,29,0,-44,33,-1,10
44822590509,4,-15,16,4,16,3,-82,18
44822604831,-47,24,95,27,4,-51,-5,-28
44822604831,27,-16,-29,-21,-13,27,75,-40
44822611677,-55,9,-36,-7,5,66,112,10
44822611677,-20,83,-25,-2,-26,26,-110,-6
44822627287,34,-77,-9,-19,-9,-16,64,29
44822627287,25,55,-63,26,24,-39,-117,-13
44822634165,-71,-55,-21,-10,-7,-42,-14,-30
44822634165,-97,-38,-41,-12,1,-41,34,-5
44822641666,-96,127,-48,16,26,25,17,-8
44822641666,108,-52,99,-26,-60,124,21,42
44822650636,1,-22,42,6,14,-30,-13,9
44822650636,-72,-105,24,-3,-1,-34,-31,-21
44822664916,-66,127,-49,-6,17,-20,47,-9
44822664916,99,-113,32,-34,-46,51,-25,3
44822671566,-65,127,4,17,11,25,-55,4
44822671566,119,-65,51,-13,-1,-1,36,4
44822687452,70,52,-23,-5,-1,11,-44,-9
44822687452,-44,-88,2,0,5,-20,3,7
44822694178,-14,2,7,-3,-3,-18,-16,-5
44822694178,70,-35,64,21,17,4,58,-3
44822701699,17,11,13,-29,-30,12,-65,-6
44822701699,-82,-64,57,-15,-27,-51,-17,30
44822710621,16,12,37,18,28,-8,13,-8
44822710621,-115,33,-33,-7,-16,-46,16,2
44822724852,46,41,-60,3,11,80,15,13
44822724852,-32,32,-58,4,14,-7,-23,-1
44822731700,-19,-35,-75,-7,-19,-3,16,10
44822731700,-35,-3,-97,-9,-8,2,-35,-23
44822747364,9,-90,-63,-6,-18,-15,-93,0
44822747364,13,83,-54,36,49,27,127,-21
44822754106,54,92,-38,-7,-4,11,-28,-16
44822754106,-9,127,42,25,39,1,23,17
44822770538,-79,21,17,-14,-19,-37,-18,-5
44822770538,78,-93,78,-6,-42,3,-37,15
44822772036,-20,47,47,14,32,-10,-3,1
44822772036,-22,51,19,16,-4,-35,34,20
44822785008,1,-16,73,10,37,40,-32,-9
44822785008,-128,32,-45,-20,3,-31,-14,-15
44822791641,-24,-39,-2,3,-40,-17,4,24
44822791641,92,94,-15,-14,-6,52,-33,-8
44822807330,-78,-4,49,15,3,-51,76,-27
44822807330,65,69,-8,20,27,8,-40,-9
44822814142,-37,-38,-15,-18,10,11,-28,-20
44822814142,25,11,-8,-3,-2,22,28,12
44822830563,13,-53,14,-17,-30,-27,-65,-22
44822830563,3,-10,25,25,18,-15,34,7
44822832122,40,-6,-17,-14,-81,-16,-11,-12
44822832122,34,-60,7,-13,84,28,-26,-9
44822844920,-19,-4,-28,-13,-17,-9,30,-2
44822844920,42,-20,5,5,3,-18,-20,11
44822851771,-26,-10,-1,8,4,-18,34,23
44822851771,-40,-7,-16,5,-46,-5,19,-15
44822867421,52,2,81,9,34,21,-18,4
44822867421,-116,43,114,-7,-4,-41,-2,-2
44822874193,120,-112,127,-39,-39,6,-26,2
44822874193,-49,-54,72,-1,-18,-41,-4,0
44822890438,23,123,-101,-8,5,12,7,4
44822890438,-7,-67,-121,10,1,18,43,-18
44822892020,-26,61,-128,12,38,27,-35,-9
44822892020,-48,-97,-95,5,1,52,-17,6
44822904825,-72,27,-89,15,14,18,22,15
44822904825,24,-32,-57,-24,-31,-6,95,-9
44822911688,7,71,-85,9,28,-1,-37,-65
44822911688,36,29,40,-9,-24,14,-5,31
44822927413,66,46,91,17,16,6,-22,-7
44822927413,-88,24,80,-6,11,-19,10,4
44822934296,-78,83,80,6,3,-53,49,16
44822934296,103,36,11,-39,-76,-66,-2,-60
44822950564,-71,38,33,9,17,52,-25,-13
44822950564,109,34,48,24,47,52,21,56
44822952149,-49,-65,14,-21,-35,-30,-15,13
44822952149,-38,-76,16,25,29,6,-18,-19
44822964959,-41,-128,-36,-20,-27,-56,-11,6
44822964959,31,127,-29,-31,-49,-33,-43,-20
44822971575,29,90,18,28,45,40,23,24
44822971575,-9,127,5,2,-5,-4,1,-2
44822987385,-2,85,17,5,22,30,0,-19
44822987385,-93,124,-4,6,13,17,-22,-1
44822994220,56,-75,52,-16,-37,-5,-29,8
44822994220,-49,33,-25,14,18,1,31,19
44823010592,16,-52,-35,7,4,-14,-4,0
44823010592,43,-128,-10,-9,-7,-1,-53,-1
44823012086,-54,-128,-13,0,15,-7,9,-4
44823012086,-18,97,-26,-12,-47,-5,-8,8
44823024245,68,-124,72,16,20,6,65,25
44823024245,58,54,-11,18,16,-13,8,-44
44823033109,0,10,-7,-4,8,10,19,18
44823033109,-66,28,-8,27,47,25,-35,-11
44823047337,-33,30,-52,-26,-42,5,-26,-11
44823047337,34,-79,37,-2,-16,-1,-7,19
44823054215,34,96,-8,22,44,19,2,-17
44823054215,-40,28,8,-2,0,-10,12,3
44823070502,-66,-86,23,-4,-2,-18,-17,-3
44823070502,-91,41,-60,-11,-12,-18,-25,-2
44823072022,42,127,1,0,-8,12,10,5
44823072022,127,-111,22,-2,5,2,3,20
44823084241,54,67,-28,-15,-34,-7,-29,-8
44823084241,-38,-1,-2,31,31,13,14,-3
44823093091,-118,53,21,-13,9,-7,-1,-25
44823093091,100,105,27,26,-2,36,38,9
44823107361,52,52,12,-8,15,10,3,-1
44823107361,-64,-4,-16,-11,-4,-6,-7,-1
44823114161,85,29,11,-24,-39,-16,12,24
44823114161,-128,-45,-23,22,55,-34,-54,-60
44823129851,18,116,-50,26,36,80,43,-31
44823129851,75,33,45,-46,-90,-37,-28,36
44823130582,74,35,31,17,27,-42,21,-13
44823130582,-44,65,-14,-6,-7,47,-49,2
44823152388,-75,-64,27,-4,-2,-44,-72,-6
44823152388,-76,74,-55,44,91,-29,58,-17
44823153075,5,-29,-84,-52,-79,127,-110,27
44823153075,10,-95,77,-45,-35,-75,83,-9
44823168119,70,-32,-15,55,27,-45,19,10
44823168119,-114,-54,79,31,34,15,-53,24
44823174237,9,-96,21,46,28,-8,98,-34
44823174237,-29,93,-95,-40,27,17,-31,51
44823189943,55,76,12,-80,-97,-30,-8,-8
44823189943,-31,50,60,17,14,-17,-27,-19
44823190565,53,-115,8,32,30,-66,34,1
44823190565,91,69,39,42,58,28,-7,-44
44823212277,-90,-99,12,-12,-63,15,-27,45
44823212277,127,119,27,6,42,89,-11,-7
44823213173,-128,127,-109,-9,28,64,-15,-24
44823213173,69,-106,98,-24,-115,-79,-36,-3
44823228084,-106,127,-10,-1,38,-128,28,-12
44823228084,42,38,-74,-31,-19,93,-19,-32
44823234109,55,-95,110,-17,-32,-22,-59,17
44823234109,-1,-110,-36,-2,-19,-42,36,17
44823249857,12,-41,1,7,6,8,-14,12
44823249857,-101,77,-50,-6,7,-3,15,-1
44823250521,33,-38,38,5,-31,-63,-17,2
44823250521,11,-54,-30,-8,2,9,89,21
44823273810,64,122,-12,0,-4,38,-23,-8
44823273810,-85,-69,-12,3,11,-3,-16,-4
44823274579,-128,53,-8,7,51,27,15,10
44823274579,-91,127,-19,-17,-9,5,-48,-4
44823288048,99,-119,43,-16,-63,-27,46,3
44823288048,9,31,-35,2,-18,-19,-3,5
44823294285,-84,96,-1,-4,32,-8,45,0
44823294285,-72,-7,-1,66,46,61,-20,1
44823309866,32,127,-14,-52,-16,9,-40,-2
44823309866,-34,109,-60,-17,-25,-45,-91,-11
44823310534,106,-23,-2,-41,-47,-13,4,2
44823310534,17,127,6,2,6,30,44,-8
44823325548,-39,-59,65,48,73,29,-78,1
44823325548,0,-125,10,0,-13,-33,102,6
44823331758,-67,127,-70,6,-7,12,-73,-14
44823331758,-64,-30,22,-24,5,-16,-20,2
44823348084,11,115,-47,59,26,41,-17,-9
44823348084,127,-6,62,-38,-75,-65,9,2
44823354068,-72,43,-1,42,55,16,32,-9
44823354068,-4,-38,-35,-40,-38,-12,-22,0
44823369874,-128,91,-66,-14,40,43,58,-16
44823369874,44,-39,63,38,32,18,-7,2
44823370701,95,75,-15,-40,-73,-49,12,-5
44823370701,-3,37,-1,7,4,7,-36,-6
44823385662,-115,92,-18,2,26,-30,51,-7
44823385662,24,-69,-34,17,17,67,64,-7
44823391712,33,-82,-20,-27,-32,-5,-92,1
44823391712,-20,-36,-5,-12,-8,-2,-45,13
44823408093,-12,68,59,-7,4,-42,-9,6
44823408093,-79,-5,59,17,20,44,95,15
44823414212,31,41,-26,-7,-27,2,29,-13
44823414212,23,81,24,0,11,21,-40,8
44823429948,-29,-48,26,16,-2,-9,-78,-8
44823429948,-38,100,-7,-28,-19,-51,-72,15
44823430546,-128,29,-8,18,73,52,-60,-19
44823430546,-62,127,-86,22,13,8,122,1
44823445649,127,30,-7,-31,-104,-45,-116,10
44823445649,44,67,-18,3,50,18,-18,-16
44823451652,-17,79,20,20,11,-1,-25,-1
44823451652,-58,-17,-40,17,13,-27,5,-12
44823468135,-53,-102,-4,5,29,17,74,-6
44823468135,-67,46,-104,-15,-29,32,-28,14
44823474242,59,66,-11,-20,-22,-13,-32,5
44823474242,127,-18,-64,21,10,8,-33,11
44823489808,-104,-61,4,-16,-2,-8,-63,-20
44823489808,-39,-26,77,18,34,4,64,9
44823490561,30,25,127,-6,-7,-18,-65,5
44823490561,81,63,127,-15,-46,5,-55,21
44823505626,-58,94,42,5,15,37,-37,6
44823505626,106,64,8,0,2,-31,-29,-1
44823511742,-84,-2,-86,11,10,-13,69,-8
44823511742,20,-105,-64,-41,-55,-49,-14,-6
44823528102,-25,-23,-74,40,26,18,-38,-9
44823528102,56,-123,9,-17,-32,-35,55,9
44823534151,108,96,-71,19,19,40,100,30
44823534151,-26,20,16,-12,8,-24,-116,-56
44823550619,127,-72,37,21,14,13,127,66
44823550619,-128,13,-64,-24,-8,22,-128,-40
44823556703,-69,-13,14,-2,1,31,49,10
44823556703,97,-65,12,-9,-19,-9,-28,9
44823565645,127,-96,93,2,7,-6,-43,-23
44823565645,-59,31,42,1,-12,-39,5,-7
44823571615,-65,-128,48,2,6,-23,27,1
44823571615,-121,90,-2,2,12,7,-56,-22
44823586745,-106,111,-43,1,9,31,103,25
44823586745,126,-23,-43,-16,-54,-39,-95,13
44823594164,40,-95,-6,10,21,0,-59,-29
44823594164,-71,-38,-16,4,9,-8,35,-31
44823609265,32,4,-41,15,24,44,103,33
44823609265,-121,-47,7,-12,3,10,-75,-20
44823616746,66,33,-33,-2,-24,-14,24,50
44823616746,53,32,17,-5,-14,-14,-50,-11
44823625571,-19,-18,-6,-5,10,-12,-116,-45
44823625571,-3,0,-10,21,4,-9,127,3
44823631638,71,-103,35,-1,-7,7,-63,-17
44823631638,-8,84,61,8,21,11,-15,38
44823646690,-27,-5,28,-13,-12,6,-37,-13
44823646690,97,52,48,-32,-38,-28,-125,-12
44823654136,-73,-41,25,25,26,-3,104,-8
44823654136,32,-32,-26,10,6,24,-18,18
44823669245,-7,5,-25,-19,-16,-12,-52,-15
44823669245,-59,-30,0,8,17,18,4,-5
44823676715,-14,41,-38,-18,-16,-19,-40,1
44823676715,52,-6,-17,0,-1,-12,94,43
44823685624,7,31,10,24,3,10,23,3
44823685624,-5,-6,12,-23,-21,-32,-88,-36
44823691663,-33,7,-75,16,6,3,69,26
44823691663,16,5,-51,-12,18,54,120,42
44823708096,-2,-27,-29,-20,-4,-1,-100,-19
44823708096,15,-5,-2,2,-7,-1,14,11
44823714144,-12,9,-13,4,0,-20,-88,-46
44823714144,-49,-50,-8,8,5,-3,76,2
44823729243,27,-13,-45,-6,5,0,62,44
44823729243,-9,19,24,1,15,-35,52,14
44823736635,-3,-8,52,-15,-20,-60,-37,-4
44823736635,15,12,99,28,4,-36,-113,-51
44823752417,0,-9,44,-16,-14,76,62,-27
44823752417,0,16,-10,15,30,117,70,80
44823753116,12,103,-1,-18,-27,92,-85,19
44823753116,-8,13,-14,-13,-10,107,-19,-24
44823766624,-27,-9,-58,-2,-2,93,-80,-31
44823766624,2,-84,-36,-1,-5,122,15,-28
44823774153,36,-42,-19,-4,-14,109,38,-1
44823774153,14,6,-53,5,-13,-17,-18,-20
44823797418,-4,-16,-6,-10,-31,-128,21,-5
44823797418,31,4,-10,16,-5,-15,10,18
44823798111,-2,-2,5,1,11,85,-19,-9
44823798111,-54,58,-6,-6,21,-43,-13,-13
44823812442,29,116,38,11,39,-76,19,35
44823812442,-34,92,35,2,34,-128,-10,3
44823813102,29,24,26,5,27,-78,-28,-7
44823813102,-26,-26,-4,-15,-2,-12,17,17
44823828118,-13,-48,-20,18,-2,-16,14,14
44823828118,-38,-55,-41,-8,-11,-52,-36,-12
44823834177,-20,-64,-7,3,1,-31,4,-6
44823834177,-13,-44,5,-5,-7,2,-23,-26
44823849243,14,-6,28,-28,-31,-48,-52,6
44823849243,29,2,41,11,1,64,76,1
44823856674,-3,4,44,-4,-15,-5,-85,-15
44823856674,-12,-16,27,2,-7,54,61,35
44823872303,-34,32,34,8,0,83,-49,-32
44823872303,76,-48,-1,-35,-40,-46,-8,-12
44823873253,-26,-4,10,24,37,8,34,19
44823873253,-19,12,-46,-2,-11,-9,-32,9
44823886753,15,4,-41,-1,2,18,40,3
44823886753,-21,21,-61,-1,0,23,-79,-10
44823894111,-20,-2,-21,2,-19,-37,107,33
44823894111,50,-11,-19,-7,-1,-5,-84,-12
44823909211,34,5,-24,8,10,37,49,25
44823909211,-20,21,-10,-5,-2,13,-48,-26
44823916599,-48,-13,-8,-8,-6,-34,-69,-42
44823916599,21,17,30,24,19,32,53,13
44823932434,-14,-9,14,-15,-16,-17,43,6
44823932434,-10,28,25,23,21,31,18,17
44823933110,-15,15,35,-19,-13,-11,-77,-30
44823933110,-36,-14,33,3,3,-14,30,-14
44823946650,11,-7,13,-11,-8,8,-66,-27
44823946650,-33,3,6,10,-1,10,-34,-15
44823954226,-15,12,-20,8,9,3,112,34
44823954226,58,-21,-43,-19,-5,-11,-47,-10
44823969281,-2,1,-35,-3,0,-2,-62,-10
44823969281,31,0,-6,-1,3,11,98,33
44823976781,-12,-15,-27,3,-1,0,-80,-16
44823976781,-54,18,28,-5,-7,-22,9,-25
44823992420,21,-2,11,1,-4,-8,-28,1
44823992420,4,-8,15,1,3,3,-12,4
44823993081,14,7,22,11,1,1,51,4
44823993081,-16,36,18,2,7,11,19,22
44824006654,-16,5,-17,3,-3,8,-28,-21
44824006654,-41,27,-17,9,4,-11,-9,-19
44824014289,31,9,-13,-5,5,-4,6,7
44824014289,-3,27,-15,-8,-8,-3,-67,-25
44824029276,14,0,2,8,5,-15,115,13
44824029276,-6,0,2,6,5,-4,-22,-6
44824036813,52,0,-17,-9,1,1,16,40
44824036813,-3,-78,-13,1,-18,-17,-6,-13
44824052458,20,-18,0,-1,-1,-4,-28,-2
44824052458,-5,-32,7,-8,-3,7,3,-9
44824053104,9,-12,8,2,1,8,-37,8
44824053104,-77,95,-31,6,-3,-2,20,-8
44824066687,14,72,-8,-7,5,0,61,28
44824066687,67,48,-14,3,-1,11,-12,40
44824074278,-1,-13,0,-10,-4,7,-41,-38
44824074278,-25,-27,-2,8,0,-7,18,2
44824089182,-47,-40,-22,4,-8,14,28,-7
44824089182,-14,-30,-34,-12,3,15,5,5
44824096750,53,-24,4,1,-2,-2,7,18
44824096750,13,18,6,4,6,19,0,7
44824112320,3,-23,9,-5,-9,4,-72,-24
44824112320,-3,-16,-19,-5,1,6,79,21
44824113202,19,10,-23,-16,12,13,3,-20
44824113202,81,-125,15,-4,-10,-2,12,17
44824126783,44,39,24,19,8,7,-18,3
44824126783,-56,4,-18,-7,-16,-18,-69,-41
44824134285,4,8,-12,1,-14,-28,32,14
44824134285,49,-13,-3,6,11,40,73,45
44824149247,6,-23,-42,-5,-4,5,-9,9
44824149247,6,3,10,4,-1,7,-21,-23
44824156734,-110,94,-27,8,4,-5,15,36
44824156734,-6,31,4,-17,-3,-10,-33,-10
44824172314,-8,-43,59,-1,-14,-28,-11,-20
44824172314,-7,26,14,0,1,20,-22,1
44824173167,-57,-27,-4,-11,-2,4,0,-50
44824173167,79,-24,16,14,11,-3,62,9
44824186762,-49,-11,-15,-7,-3,2,-53,18
44824186762,92,-52,73,2,14,-43,-41,-22
44824194234,20,39,-8,8,-11,6,25,-6
44824194234,-19,41,-23,-4,-21,-11,-60,-44
44824209309,-11,81,-59,-16,15,7,61,23
44824209309,90,-90,34,-1,18,12,-86,-79
44824216800,86,13,41,14,-3,-7,82,47
44824216800,67,30,-21,6,12,38,-95,58
44824232428,-11,42,-22,-7,-12,-7,-18,-31
44824232428,36,-83,-5,14,8,10,-63,30
44824233087,31,-62,63,1,-5,-23,82,-12
44824233087,-40,112,-64,-15,-21,-9,-22,1
44824246773,-21,-2,-5,1,11,8,-11,-12
44824246773,-69,-14,-34,-9,-10,1,40,4
44824254247,-50,45,10,8,13,21,-48,-24
44824254247,-37,58,37,5,8,0,39,42
44824269152,116,-52,85,-6,-2,-33,-29,-8
44824269152,-39,127,-1,-3,-7,-16,48,1
44824276770,-44,-20,-9,6,-36,9,-55,-18
44824276770,-51,-22,39,3,42,-26,28,2
44824292438,-62,64,-38,-8,29,55,88,-1
44824292438,21,127,-17,-27,-35,18,-12,19
44824293134,98,31,-33,16,17,-16,-43,1
44824293134,15,73,-26,1,-14,-19,-13,15
44824306669,-19,-5,-29,0,-20,-12,-82,-17
44824306669,-108,104,-61,-16,0,5,127,19
44824314260,75,2,23,-18,-21,-32,-71,-18
44824314260,-39,-98,16,11,-1,1,-7,-7
44824329247,33,84,-52,5,10,0,3,42
44824329247,-71,66,5,8,4,-10,3,-15
44824336723,-110,-20,-10,-7,25,30,11,-10
44824336723,-111,-34,8,-14,-29,0,-4,-26
44824352380,84,-50,96,17,9,-9,5,-19
44824352380,47,69,76,-1,-11,-22,-104,12
44824353200,-21,96,46,20,18,-3,85,10
44824353200,12,70,-22,0,-9,43,16,21
44824366739,-128,90,-52,-9,49,39,-14,13
44824366739,56,-100,53,-34,-79,-96,-33,-55
44824374239,28,108,-25,16,15,-6,-21,37
44824374239,15,78,-72,-15,-5,2,28,-24
44824389166,89,-75,-21,10,-53,17,24,-2
44824389166,-83,-15,-32,1,70,49,19,9
44824396739,-69,-46,-28,-36,-52,-26,-51,-37
44824396739,107,-108,63,12,4,-45,-8,-14
44824412445,-77,66,-1,-1,2,-21,21,3
44824412445,-57,24,2,25,-8,17,6,2
44824413139,-35,0,-10,13,22,44,78,23
44824413139,-111,78,-59,-8,25,39,-52,24
44824426821,30,-78,48,-42,-91,-88,-14,-22
44824426821,28,127,-16,25,51,27,39,23
44824434421,-51,-29,36,-22,-4,-1,-109,-30
44824434421,-30,-28,62,30,39,-10,59,-22
44824449267,19,121,1,13,22,60,33,51
44824449267,32,-128,-19,-29,-79,-35,-23,18
44824456712,105,-73,34,-16,3,-44,-90,-22
44824456712,77,64,17,15,22,10,35,17
44824472319,-90,-44,-13,1,13,-9,-77,-32
44824472319,-47,-26,-97,27,43,81,109,45
44824473122,-45,7,-82,-24,-71,-24,-54,8
44824473122,83,91,24,-17,-11,-48,-32,-13
44824486798,-15,110,-2,50,16,7,15,-12
44824486798,-35,-21,0,-8,23,1,-9,-12
44824494225,-122,109,-54,-1,34,60,44,4
44824494225,84,-81,104,-35,-111,-66,-27,-14
44824509267,36,88,50,3,22,-26,22,9
44824509267,-34,127,-17,15,24,11,-5,2
44824516714,-44,55,-20,15,24,19,-3,16
44824516714,-120,118,-62,-7,17,38,18,7
44824531821,48,-73,29,-15,-26,-6,-19,-1
44824531821,29,-122,53,10,-47,-28,0,42
44824539945,103,86,-14,-5,-11,-43,-28,5
44824539945,-14,124,-25,-4,28,15,-5,-29
44824546774,-92,67,-5,16,23,6,-9,-21
44824546774,34,127,15,15,49,43,94,-10
44824554294,24,-39,11,-14,-37,8,-12,-12
44824554294,-2,-7,-13,14,3,-7,7,8
44824569234,46,6,-24,13,-1,8,1,-12
44824569234,41,-42,26,-9,3,-15,-32,-20
44824576775,19,-86,17,17,44,24,49,-2
44824576775,-113,39,-55,-18,-13,10,-4,-2
44824591767,82,-112,81,-36,-53,-66,-10,16
44824591767,-54,127,17,14,23,4,-24,2
44824599938,-86,79,14,-11,11,7,16,13
44824599938,-128,-87,-40,17,23,39,-2,1
44824606691,-99,-100,-89,-4,-9,19,23,10
44824606691,40,-128,-100,-25,-35,-36,-28,-4
44824614292,87,-92,30,-3,-2,-39,-16,-15
44824614292,127,59,19,17,19,-1,19,-4
44824629227,-52,127,-3,-6,33,43,18,4
44824629227,-84,127,34,6,-7,-3,-26,-17
44824636804,-73,-90,4,-1,-21,-31,-28,-1
44824636804,-32,-126,5,-3,-12,-4,84,-4
44824651858,86,-128,-23,-2,5,16,-6,1
44824651858,117,95,-18,-14,13,29,-33,4
44824660018,-4,127,19,14,-4,18,24,-1
44824660018,-33,123,60,-9,-15,-56,10,-14
44824666773,-13,127,24,22,41,8,74,2
44824666773,7,-128,-9,-6,-15,1,-47,10
44824674163,37,-14,3,-2,7,16,32,44
44824674163,7,-125,-13,-8,-3,9,-46,-14
44824689134,-111,-76,-22,-5,-5,8,-8,20
44824689134,-8,-115,26,-17,-59,-72,16,-10
44824696748,64,46,-7,2,14,26,3,0
44824696748,17,-118,3,-12,7,24,-33,12
44824711740,32,102,0,2,45,29,17,-7
44824711740,-73,103,65,-8,-45,-4,-15,-3
44824719988,72,50,74,-5,-21,-54,2,-12
44824719988,-93,92,-52,30,20,5,-7,-9
44824734915,26,-93,-86,-14,-12,-21,-13,-18
44824734915,-33,-82,-109,-16,61,28,9,6
44824735664,-87,-128,-88,11,-22,22,20,-1
44824735664,1,-20,-11,15,-24,-1,-14,-4
44824749297,-44,102,42,4,9,1,-2,-3
44824749297,16,119,53,2,6,-24,-4,-20
44824756715,-30,-42,35,6,25,10,2,0
44824756715,41,-128,8,-31,15,4,-15,6
44824771680,-10,-128,8,-9,-49,4,-9,4
44824771680,27,-79,15,-11,-4,-11,-18,2
44824779937,-27,-83,-8,-1,-15,-15,28,1
44824779937,104,105,-18,18,13,12,-10,11
44824794994,37,20,96,-17,-12,-2,-9,-2
44824794994,-86,117,108,16,19,45,-4,-19
44824795608,57,-59,127,-62,-87,-77,-40,46
44824795608,8,97,127,39,41,21,20,-21
44824809325,-25,28,112,-18,-6,-8,-12,2
44824809325,-31,-89,-109,21,20,28,22,19
44824816822,14,-63,-125,-15,0,12,-17,3
44824816822,-80,67,-128,-25,-25,-38,-15,-23
44824831823,-66,121,-128,35,35,-2,0,18
44824831823,-128,127,-110,56,52,12,-3,-39
44824839921,-120,127,-69,28,61,29,16,-1
44824839921,-25,89,33,-6,-24,-22,-12,1
44824854908,-35,-45,97,44,-35,-3,-7,-10
44824854908,0,-128,127,-44,21,-25,-9,-1
44824855660,47,-94,110,-17,-15,7,94,3
44824855660,114,-123,80,-27,0,17,-37,-34
44824869376,77,-105,42,-21,-10,31,25,14
44824869376,127,-13,36,-6,-51,6,24,18
44824876732,-31,44,45,1,21,17,-7,-28
44824876732,-118,-13,78,3,2,-10,-43,12
44824891804,107,56,74,-21,-50,-67,55,22
44824891804,110,-86,120,-39,-61,-76,-81,6
44824899913,-51,127,125,12,28,22,-10,23
44824899913,-1,25,-9,10,11,33,15,22
44824914993,-107,-63,-115,11,31,16,-21,-35
44824914993,75,94,-122,-38,-75,-54,11,-1
44824915671,-95,-59,-128,20,34,3,-34,-22
44824915671,38,-93,-119,25,-12,-11,21,4
44824929258,67,-15,-126,10,45,28,-32,-43
44824929258,-126,-3,-105,20,37,28,30,-7
44824936796,-45,76,-43,17,23,39,-17,-41
44824936796,74,-45,93,-25,-53,-26,-2,39
44824951658,77,-71,95,-24,-43,-53,5,27
44824951658,92,45,77,12,12,6,-1,10
44824960022,-37,73,44,6,-13,-20,-5,-2
44824960022,-128,-23,30,-5,39,33,-55,-38
44824974950,-124,127,28,24,35,41,12,16
44824974950,-13,32,-31,-13,-47,9,41,-14
44824975623,104,-36,18,-34,-44,-63,-1,65
44824975623,-33,17,-53,10,31,12,30,-3
44824989179,-56,-19,61,32,47,-6,-92,-46
44824989179,-116,86,-92,-23,-6,-7,-48,-67
44824997493,-94,33,59,43,55,110,72,46
44824997493,59,-19,-10,-2,-27,11,20,11
44825011776,83,76,-33,-86,-86,-86,-5,21
44825011776,-125,78,46,59,75,34,1,37
44825020022,127,8,-36,-13,-21,-29,2,-70
44825020022,-124,-64,16,-2,19,34,17,-2
44825034953,-23,80,-46,-7,-30,16,32,53
44825034953,116,-128,29,2,-19,-58,-52,9
44825035695,80,-38,-7,-4,-8,-30,-27,-1
44825035695,0,95,-6,-2,-1,-4,24,-1
44825049307,-128,-96,-14,16,58,60,6,-46
44825049307,-114,35,-19,20,10,55,38,32
44825057477,71,39,-31,-61,-73,-81,-16,17
44825057477,-31,110,-4,31,62,17,15,-13
44825071710,-98,-105,23,-12,-16,14,-41,15
44825071710,-38,-81,17,40,79,-7,60,-62
44825079877,-128,12,-70,17,24,103,5,6
44825079877,127,106,-23,-89,-100,-102,-9,72
44825094998,32,-20,-7,22,72,43,17,7
44825094998,-86,59,50,-8,-4,19,17,17
44825095694,-50,-64,29,-4,-63,-101,-18,-22
44825095694,-44,119,-48,-9,-9,-30,-1,-41
44825109290,11,48,24,48,76,84,-15,-1
44825109290,64,-119,33,4,26,52,72,52
44825117510,45,91,-22,-35,-68,-62,-47,-35
44825117510,-68,-128,12,6,9,-5,-18,-2
44825131851,30,112,-16,-24,-57,-73,-3,-10
44825131851,-62,93,10,-8,14,17,-35,-24
44825139902,-79,-3,-6,22,55,55,-13,0
44825139902,-16,21,12,15,8,26,79,21
44825154863,63,-13,-7,-17,-68,-62,-22,-13
44825154863,49,110,13,-14,-15,-19,-35,-2
44825155636,-85,42,-1,29,49,38,29,4
44825155636,-36,-41,-7,-9,-7,-30,-86,-34
44825169218,-40,60,2,55,50,45,102,23
44825169218,-52,-117,-45,-52,-31,34,-44,-9
44825177361,14,-72,23,2,14,21,-25,67
44825177361,61,96,-22,-30,-50,-44,-73,-23
44825191807,-83,-68,46,-9,-4,-32,-17,17
44825191807,-32,35,28,34,21,-13,14,-35
44825199973,-90,71,-35,6,40,64,56,-21
44825199973,14,22,15,4,-11,21,6,24
44825214964,57,-41,-18,-6,-18,-8,13,26
44825214964,63,95,-30,-1,-15,-33,32,1
44825215668,46,-60,1,1,18,-8,-23,-34
44825215668,-45,-68,37,18,31,30,-18,0
44825229221,-125,98,-63,-28,-16,-13,45,-20
44825229221,48,46,-1,23,-11,3,13,-17
44825237371,14,127,13,-12,-11,-28,-30,5
44825237371,13,-128,14,-2,-4,-12,-22,-2
44825251787,-63,67,-28,6,47,43,-32,-17
44825251787,-96,-100,-28,-8,-29,-59,-94,-2
44825259970,-32,43,-47,23,14,26,122,9
44825259970,59,126,-111,-4,16,77,-75,0
44825274997,60,-45,40,-27,-51,-30,-89,30
44825274997,127,-12,82,-6,-5,-8,-56,18
44825275663,-95,-95,127,1,1,-54,-93,-37
44825275663,-111,-71,84,37,63,40,26,16
44825289205,-16,1,-11,-17,-37,-11,60,22
44825289205,66,-59,-12,-48,-79,-80,-14,57
44825297407,28,-52,-16,31,63,48,-28,-15
44825297407,55,28,-24,-13,-43,-31,43,-2
44825311772,31,15,-27,0,4,-10,11,-27
44825311772,-128,114,-82,1,26,41,13,-3
44825319983,69,-95,-48,-3,-28,-19,-4,12
44825319983,-46,-46,-74,5,9,1,29,-1
44825334832,94,56,5,-25,-27,-27,-24,-1
44825334832,19,46,101,9,4,6,12,-3
44825335624,-48,-27,127,7,21,34,24,-7
44825335624,-57,-1,103,1,-8,-10,12,-4
44825349319,17,27,19,3,-2,-19,-24,-13
44825349319,-13,-35,-16,5,20,21,-1,-4
44825357478,16,-62,-43,3,4,-7,49,-2
44825357478,-47,16,-53,11,15,33,50,16
44825371708,2,-64,-52,-3,-7,8,-103,-1
44825371708,76,7,-29,-3,-18,-15,32,43
44825379902,-9,31,-52,-7,-18,-34,-50,-36
44825379902,-96,91,-40,3,28,13,34,12
44825394964,90,70,-30,10,-14,30,46,21
44825394964,-25,79,-23,-5,16,5,-28,-18
44825395667,56,22,7,-7,-16,1,22,-4
44825395667,88,28,1,-21,-34,-54,-3,3
44825409288,-49,-44,16,9,28,18,-34,-11
44825409288,-69,-70,35,9,18,22,27,-5
44825418205,2,57,-9,-31,-45,-38,-33,19
44825418205,15,-26,28,21,5,-8,2,-17
44825431795,-14,-24,5,-2,4,-3,12,-13
44825431795,-6,-60,15,2,6,13,-6,-7
44825440812,11,25,-26,-4,-5,0,18,19
44825440812,40,-43,30,-3,-3,5,-22,-13
44825454230,-43,-24,6,9,21,19,3,-9
44825454230,7,26,-31,2,-25,-20,-2,0
44825463247,31,6,4,-11,-3,-6,-12,2
44825463247,20,-13,-9,15,10,2,-13,-13
44825469235,-11,-51,9,-14,1,-2,8,6
44825469235,-16,-12,15,15,8,4,-22,-7
44825478199,17,60,-11,1,-14,-21,3,12
44825478199,8,-16,-41,-12,0,6,70,5
44825491827,-20,-18,4,9,18,16,-16,-14
44825491827,32,-15,-26,-8,-5,-9,-17,-5
44825500860,10,-12,29,6,3,-8,-9,-22
44825500860,-35,19,20,2,10,14,18,-3
44825514368,25,38,38,-1,-19,-16,-4,25
44825514368,22,-17,20,-8,-10,-6,10,11
44825523294,-40,-31,-10,0,23,27,-29,-6
44825523294,-8,-54,39,1,-2,-2,-14,9
44825529320,18,8,13,-4,-22,-31,10,0
44825529320,-11,-30,6,-6,0,-1,-63,-25
44825538212,-22,-31,-31,5,10,14,52,-10
44825538212,25,-16,-18,-1,-7,9,-13,-3
44825551921,-8,-72,-53,5,4,8,-23,2
44825551921,-7,35,-53,1,-3,-6,-18,-10
44825560761,26,-34,-52,4,10,2,9,-4
44825560761,22,30,-53,7,6,7,-38,-6
44825574347,22,54,-27,-13,-11,-27,13,-18
44825574347,-8,68,-17,-1,10,8,13,2
44825583167,-28,94,-10,-3,6,17,20,26
44825583167,-16,104,43,-4,-8,13,17,35
44825589192,2,25,56,6,-11,-30,-50,-19
44825589192,-11,-67,39,-3,-2,-15,22,6
44825598195,29,-73,20,-10,-17,22,7,12
44825598195,13,-89,26,0,3,10,-26,-7
44825611876,-48,-45,67,9,17,27,51,19
44825611876,42,-4,48,-15,-29,-37,-38,-20
44825620686,-5,5,72,30,18,-17,-25,-9
44825620686,-9,-21,16,-7,-5,-13,-24,-17
44825634439,-37,1,-31,-1,4,9,-9,-18
44825634439,32,5,-20,1,6,4,59,51
44825643162,-25,38,-36,-9,6,21,1,19
44825643162,8,39,-13,17,-3,2,-7,9
44825658141,23,-38,-6,-14,5,-13,-3,-8
44825658141,-51,-45,-37,1,9,1,-60,-44
44825659701,-16,-24,1,-15,-15,-20,36,-15
44825659701,57,12,1,18,9,17,23,36
44825671735,-3,16,8,8,1,9,-14,6
44825671735,16,1,8,6,11,28,76,8
44825680811,-8,-5,-33,-8,-1,11,-104,-32
44825680811,1,-12,16,-23,-24,-68,-33,-25
44825694426,-12,1,-6,-1,3,-2,-12,-9
44825694426,-19,2,2,9,10,25,82,4
44825703264,47,22,-4,-3,-14,-22,-49,32
44825703264,-21,-4,9,-1,2,11,10,0
44825718247,11,27,-5,-1,-10,-12,-7,-2
44825718247,-20,20,4,6,7,-11,-77,-24
44825719855,-31,-4,8,5,4,-2,80,6
44825719855,42,-3,-19,-11,-6,20,-3,1
44825731849,17,-13,-20,6,6,10,80,38
44825731849,-5,-32,5,-11,-12,-5,-19,-7
44825740736,3,-24,17,7,9,15,-9,-8
44825740736,-16,-21,0,-7,-8,-29,-45,-38
44825754239,-17,-2,15,2,0,0,4,5
44825754239,8,-1,-7,-7,2,5,45,12
44825763243,17,21,10,3,-16,-7,-18,-1
44825763243,-10,4,-8,0,7,-9,-4,-18
44825778238,-8,8,-22,-1,2,8,-18,18
44825778238,6,-4,-23,0,1,4,21,9
44825779678,-17,-1,-4,-8,-3,-4,-41,-11
44825779678,8,7,-4,1,0,2,56,22
44825791836,0,0,-13,1,0,-1,-27,-24
44825791836,-12,-4,11,2,1,-9,-25,-12
44825800819,-11,-5,9,-1,-4,-4,14,-14
44825800819,-7,0,-19,11,9,30,12,11
44825814344,27,13,-5,-25,-19,-24,63,-19
44825814344,14,1,0,3,5,30,-28,13
44825823232,-5,6,-15,-5,-4,-9,-42,-15
44825823232,-11,-1,26,22,9,-13,-17,0
44825838090,14,-39,18,-24,-19,-12,3,-16
44825838090,-3,1,-4,6,8,1,-8,-2
44825839678,11,2,-6,-2,0,0,53,22
44825839678,4,-7,7,2,1,-2,-25,2
44825851881,-30,8,-5,16,9,14,-4,-10
44825851881,3,2,-7,-5,-10,-10,-30,0
44825860812,0,-5,4,5,10,14,48,11
44825860812,-13,14,-7,-13,-11,-14,-4,8
44825874389,-9,3,2,8,5,7,13,-14
44825874389,8,-4,-2,-5,-2,3,-11,3
44825890776,5,27,-5,7,7,8,13,7
44825890776,-19,40,-1,-14,-14,-24,-31,-38
44825898099,28,8,16,8,9,4,18,28
44825898099,12,9,-25,0,-2,12,4,24
44825899701,-25,-1,8,-4,-7,-10,-19,-7
44825899701,-39,26,7,-24,-14,-37,-60,-34
44825911883,3,31,-4,15,13,35,67,27
44825911883,-5,2,9,11,11,15,-5,-2
44825920931,6,-15,11,-4,-3,-5,-19,0
44825920931,-16,-20,-9,-2,-6,-14,-20,-25
44825934337,-42,27,-6,15,1,-30,-64,5
44825934337,20,-35,15,-31,-10,13,60,-16
44825943234,5,19,-12,10,6,1,-5,-3
44825943234,37,-21,-7,0,1,5,21,33
44825958214,-12,-14,-10,-2,-3,5,-24,-9
44825958214,-9,5,-6,6,-4,-18,28,5
44825959814,-11,-16,-8,-6,-3,0,-20,-26
44825959814,-4,-41,21,-1,4,2,13,-4
44825971733,43,12,2,-1,1,14,14,18
44825971733,-20,18,-9,2,-1,-5,-4,14
44825980774,-65,-22,8,-3,-9,-10,-12,-20
44825980774,62,-10,15,15,11,11,31,54
44825994272,-10,4,17,-6,1,9,-4,12
44825994272,18,32,2,-3,-10,-17,16,0
44826003284,-8,-10,-16,-1,-2,9,-11,-26
44826003284,-34,14,4,-5,-2,1,-15,-39
44826018214,9,-17,3,11,12,-6,-17,12
44826018214,36,-26,-3,-7,-1,14,37,-24
44826019866,23,-9,-11,3,3,2,-9,24
44826019866,-10,2,-15,-4,-7,-6,-18,-15
44826031847,-56,68,-25,2,0,2,2,3
44826031847,-32,-77,41,-10,-6,-14,-22,-43
44826040818,39,65,-15,11,13,8,35,25
44826040818,-1,10,-31,-3,-7,12,2,6
44826054413,-8,-12,-8,-6,-10,-44,-44,-33
44826054413,-45,31,-15,9,2,23,15,15
44826063256,69,-43,21,-10,8,23,0,49
44826063256,41,-9,35,5,10,7,-4,16
44826078263,-13,-22,-3,-8,-11,-11,-7,-9
44826078263,-25,19,27,16,4,-29,-42,-21
44826079941,-33,-28,-4,-8,-8,3,24,-6
44826079941,-22,-20,36,-20,10,0,22,-36
44826091868,115,-86,-14,-4,-29,-3,-2,-20
44826091868,12,52,-36,-1,3,-1,-18,6
44826101415,-13,15,9,5,2,-4,-2,-25
44826101415,-20,-21,-60,3,3,15,8,3
44826114338,-14,14,37,9,27,34,22,0
44826114338,108,-88,28,-11,-19,-28,-2,-3
44826123261,13,24,-60,0,-8,-9,-12,-3
44826123261,-94,95,-50,-6,-10,-19,7,-13
44826138107,-45,34,-33,2,16,4,-8,-6
44826138107,-40,9,-11,8,11,3,8,49
44826139663,16,-52,75,-15,-29,0,-10,-6
44826139663,23,-61,33,-2,7,16,26,40
44826151984,-24,45,16,5,0,-2,-16,-19
44826151984,-24,32,25,3,5,-15,-11,13
44826160809,-30,13,-12,-4,0,-22,-20,-9
44826160809,3,-15,34,7,-8,3,12,1
44826174360,-16,-4,6,-21,-14,-11,-31,1
44826174360,-18,33,47,7,-12,5,34,32
44826183303,5,33,10,12,29,18,-18,-27
44826183303,49,26,-17,4,-1,20,50,19
44826198187,-39,-60,-21,-10,14,10,-20,-3
44826198187,53,-39,21,-6,-38,-30,-40,-77
44826199808,-96,112,-20,-5,-9,-28,-14,-14
44826199808,108,41,-32,9,1,-6,14,63
44826211881,27,69,-99,-2,16,37,16,35
44826211881,-25,-83,-93,-9,-16,17,12,-15
44826220915,85,11,-58,4,-22,-35,-2,-3
44826220915,-43,44,-44,-1,5,-2,-30,-30
44826234374,-101,102,14,8,10,11,13,-1
44826234374,27,38,-2,-18,5,1,-11,-4
44826243213,44,-128,63,5,7,9,30,37
44826243213,-40,-64,49,16,1,5,-18,-18
44826258251,32,-30,75,2,7,3,2,27
44826258251,-74,17,47,3,17,9,-22,-9
44826259808,-2,44,62,4,1,-18,0,-23
44826259808,10,-40,55,7,13,9,40,60
44826271808,27,-53,41,-8,-17,9,-26,-22
44826271808,-26,51,90,16,27,34,13,-10
44826280822,-100,92,48,-12,-18,-23,-40,-16
44826280822,74,-30,11,0,-29,-31,7,-26
44826294346,34,-47,-95,4,5,-1,6,19
44826294346,4,-61,-119,-19,-2,-1,-8,-9
44826303256,-93,86,-120,-11,44,62,25,37
44826303256,-25,67,-71,11,-56,-45,-24,-56
44826318275,79,-47,-27,-6,-12,-31,5,-25
44826318275,-13,82,-51,9,16,12,9,34
44826319807,-51,-31,-24,-13,8,17,5,-7
44826319807,-7,43,-5,-23,-1,-2,-45,1
44826331729,-68,17,38,28,6,4,54,35
44826331729,-87,96,-6,-5,-4,15,-38,-11
44826340753,98,-28,-11,-8,-11,-28,15,43
44826340753,-18,34,13,2,18,19,-6,0
44826354245,-49,73,48,-5,-7,-16,-41,-56
44826354245,4,61,64,14,22,6,27,81
44826363240,-47,1,66,12,-2,27,-46,-28
44826363240,6,-58,70,-3,-3,-28,43,-5
44826378268,40,127,-53,-8,6,11,-18,23
44826378268,21,21,-48,-5,2,-11,6,-15
44826379762,31,-42,-66,25,34,38,-13,-3
44826379762,32,-28,-48,-20,-48,-31,-11,-17
44826391921,80,-50,1,-11,-15,-33,15,-34
44826391921,4,83,-51,-7,5,10,-2,9
44826400808,44,50,1,2,22,12,21,8
44826400808,-114,127,-53,7,25,46,-4,13
44826414383,-7,-66,36,-21,-21,-20,-2,-11
44826414383,-38,7,-25,48,-24,-24,-4,-8
44826423228,-20,78,0,-15,-3,-18,-13,11
44826423228,-24,30,4,-2,22,16,23,-11
44826437585,-66,-8,1,-11,19,31,-26,9
44826437585,-60,72,-13,3,-13,0,13,-8
44826444506,104,-72,56,-24,-54,-73,-22,-18
44826444506,3,87,-13,10,31,27,-40,-15
44826451996,-67,75,-7,7,-3,-33,53,-3
44826451996,62,-6,30,16,52,71,103,16
44826460808,-82,106,-76,-9,1,40,-32,16
44826460808,93,-75,67,-27,-72,-76,-53,-24
44826475074,23,-72,22,36,24,13,8,-12
44826475074,18,37,-1,-15,-8,-18,-17,6
44826489253,13,6,9,3,8,-2,44,-2
44826489253,-110,101,-78,-9,48,66,-1,26
44826497619,41,-52,73,18,-75,-34,-32,-39
44826497619,70,57,22,-30,-36,-76,-15,18
44826504400,-5,86,-22,1,23,25,17,-11
44826504400,-44,59,-82,31,23,20,0,-9
44826511955,-29,127,-122,-12,29,43,22,19
44826511955,-78,-55,0,11,-1,32,-11,-13
44826520832,39,89,76,-18,-58,-78,-11,-7
44826520832,-44,82,95,-1,23,-11,12,19
44826535112,-48,124,14,9,6,2,-11,4
44826535112,-82,-41,30,11,24,-4,53,-20
44826541947,-21,70,-82,4,27,58,-4,60
44826541947,127,-71,75,-31,-69,-36,24,-28
44826557575,56,127,-36,-29,28,17,25,10
44826557575,50,28,-29,35,-21,-10,-66,9
44826564473,-13,-102,6,-2,-9,-32,-4,-16
44826564473,-5,-40,-26,8,-8,0,7,-6
44826571813,-71,91,-45,-25,51,21,70,-19
44826571813,125,-111,80,-83,-59,-38,-35,-14
44826580808,16,104,10,108,6,-4,-22,-19
44826580808,4,59,-29,6,10,2,-48,11
44826595172,-84,15,21,-15,-12,-5,18,2
44826595172,-128,127,9,13,38,34,-27,-9
44826601953,-28,-14,28,-37,-50,-28,37,-1
44826601953,110,87,44,-18,-14,-38,-33,5
44826617602,-37,43,7,30,9,5,8,3
44826617602,-39,41,-44,-7,21,14,-1,3
44826624402,-124,62,-56,6,20,33,-22,-6
44826624402,46,-4,10,-8,-20,-24,83,7
44826640728,51,47,3,-18,-22,-34,-87,3
44826640728,-16,75,15,28,9,0,62,-8
44826642264,6,51,-38,-4,49,56,-13,-36
44826642264,-128,-37,-52,8,-1,41,5,4
44826654965,124,78,29,-5,-46,-42,-9,60
44826654965,37,39,-32,-14,16,-5,-6,-23
44826661749,-40,-83,62,-9,-6,-24,-16,-4
44826661749,-119,-34,10,1,66,63,27,10
44826677392,-104,-1,-19,29,10,32,-35,-10
44826677392,67,-71,25,-62,-118,-111,-46,4
44826684262,108,105,3,-8,38,-11,29,5
44826684262,-83,70,10,52,23,5,-89,-5
44826700545,-48,81,16,-10,23,26,114,-32
44826700545,-42,47,-18,-5,5,61,-47,22
44826702147,-17,69,1,-15,-25,4,17,1
44826702147,127,38,-24,-54,-59,-66,-30,-1
44826746341,-18,2,-34,29,5,3,-16,-11
44826746341,2,-16,-37,19,29,8,12,-18
44826748724,25,-72,-19,-30,-7,-4,6,-2
44826748724,-58,113,35,19,2,10,12,-2
44826752415,-34,48,1,-11,-34,-29,-28,-4
44826752415,95,-73,34,9,11,16,6,34
44826753210,-38,16,-26,-3,-10,-1,11,2
44826753210,6,-38,0,5,27,13,20,-11
44826760696,15,54,-10,-4,-6,18,-7,8
44826760696,55,102,59,-2,6,-6,9,21
44826762369,-44,3,8,6,-3,8,-28,-22
44826762369,125,29,39,-26,-68,-95,67,42
44826775084,79,82,-19,-1,43,29,-16,4
44826775084,-113,127,-64,46,61,54,8,-19
44826781866,116,67,44,-2,-9,7,11,25
44826781866,3,91,-12,-11,-7,-3,-17,-9
44826797622,-41,-128,50,6,-5,-8,-13,-2
44826797622,-88,124,-53,-14,-14,-7,36,-9
44826804327,-8,-119,31,5,-2,-4,-16,-3
44826804327,-37,26,-46,-7,20,25,-9,-14
44826820734,26,-115,28,7,-29,-38,-17,6
44826820734,-1,-41,-7,10,25,24,-5,31
44826822219,-27,-62,-6,-1,-17,-16,6,0
44826822219,16,-68,19,0,2,0,16,-1
44826834390,-1,-46,1,-15,4,7,-32,4
44826834390,11,-78,60,3,-9,-10,11,5
44826843253,10,-21,-24,-3,-4,-5,4,6
44826843253,-58,-47,-41,14,22,22,-6,5
44826857470,-12,-10,-30,-8,-18,0,2,12
44826857470,23,-27,-37,-2,-4,-26,-24,-7
44826864416,2,44,5,5,7,-10,-2,10
44826864416,-68,-32,18,35,49,46,18,-14
44826880635,-95,57,-66,-9,-31,-5,-18,8
44826880635,120,-101,56,-32,-45,-58,-8,-7
44826882367,-8,111,-1,14,30,19,-30,-16
44826882367,-45,-17,-5,-5,-2,5,26,13
44826894408,37,-53,-11,1,-6,-12,-32,-16
44826894408,28,-107,-32,-7,-12,1,12,-4
44826903293,4,-128,-34,0,7,10,2,-24
44826903293,-35,92,15,5,23,29,1,-1
44826917528,5,107,92,-13,-13,-20,-15,-22
44826917528,-113,127,-11,15,20,11,2,8
44826924296,-29,-47,3,16,5,1,19,14
44826924296,-1,50,-33,1,4,4,-8,-6
44826940653,-2,23,-24,8,15,25,54,27
44826940653,15,-64,-2,-26,-62,-35,-26,-16
44826942292,56,127,-7,-23,-28,-39,-24,4
44826942292,3,6,-27,20,23,9,10,-15
44826954289,-13,-83,-2,-13,12,7,6,-4
44826954289,-128,39,-4,25,54,59,23,10
44826963285,-8,-99,-65,-7,-76,-42,-8,-11
44826963285,84,73,-45,-28,-23,-46,-33,-5
44826977689,82,52,53,-8,37,19,9,-11
44826977689,56,100,5,50,5,0,-2,7
44826984477,-25,82,32,-12,13,9,13,0
44826984477,-35,-30,14,15,26,47,6,1
44827000619,16,-10,-1,-16,-59,-35,-14,14
44827000619,41,26,-5,-21,10,-35,-11,-24
44827002248,-82,-50,25,21,43,43,20,2
44827002248,-72,-80,10,10,-20,-3,-41,-1
44827014257,57,82,3,-10,-11,-33,-5,15
44827014257,-33,-19,-11,-5,2,7,-37,-53
44827023351,-25,-2,56,14,8,-20,92,39
44827023351,-15,-41,-53,-2,41,72,19,35
44827037566,-102,0,-13,22,36,75,13,9
44827037566,124,127,-45,-43,-115,-78,-2,25
44827044252,71,44,32,-3,17,-51,-71,-34
44827044252,-100,81,39,13,16,-13,12,-31
44827060773,20,38,44,46,49,28,35,22
44827060773,-98,-47,-19,-8,51,104,5,35
44827062261,-72,-18,-61,-77,-101,-69,-62,-26
44827062261,127,-68,73,19,28,-6,-8,29
44827074384,-71,101,-39,-8,3,-12,-1,-37
44827074384,-107,-55,53,31,75,59,-55,-22
44827083307,-127,127,-61,18,31,64,92,27
44827083307,100,39,-30,-61,-117,-103,-58,5
44827097513,96,-128,77,17,17,-17,15,-6
44827097513,-24,94,-20,-4,23,28,6,7
44827104318,-22,63,9,-26,-30,-28,44,-16
44827104318,9,55,-25,32,17,40,-53,29
44827120776,44,-109,2,-20,-31,-17,-22,-2
44827120776,124,-20,9,-20,-59,-86,12,-23
44827122199,35,-3,36,18,45,60,-20,-6
44827122199,-128,72,1,-32,6,10,55,-31
44827134357,24,-12,76,74,41,56,71,15
44827134357,77,-128,-10,-17,-20,-7,-25,53
44827143289,-32,103,-79,-3,11,-30,-61,-22
44827143289,4,-53,32,-6,-43,-17,-74,-24
44827157596,-15,83,1,-4,-22,-82,48,23
44827157596,-111,17,-20,-21,35,66,11,-37
44827164383,-35,-67,-27,66,23,61,-33,10
44827164383,75,96,39,-40,-55,-81,-16,2
44827180742,-32,60,-40,-24,1,2,-46,-9
44827180742,-81,101,27,39,43,30,48,-5
44827182304,56,-49,65,-7,9,17,-25,-7
44827182304,-117,-55,-61,-8,-19,1,-33,-4
44827194483,80,92,-71,-32,-56,-61,28,-6
44827194483,3,127,-18,-2,0,-19,-6,-12
44827203319,-115,-33,-27,28,70,65,22,-14
44827203319,-60,-78,38,50,27,39,123,33
44827217611,79,69,-2,-47,-49,-37,-64,-24
44827217611,-34,-1,2,-18,-19,-37,-29,3
44827224396,-9,-34,24,20,2,-2,31,2
44827224396,-4,107,30,-14,-9,-10,-40,-10
44827240743,-22,-92,-19,20,41,34,-69,-22
44827240743,-18,31,0,10,21,30,52,-7
44827242256,20,-55,37,-6,-13,-7,-64,13
44827242256,18,-12,-51,-3,-14,-14,126,20
44827254482,21,-27,-18,-41,-62,-37,-128,-19
44827254482,83,-41,53,28,15,-17,-126,-6
44827263359,95,127,-19,-3,1,-4,102,15
44827263359,-1,-70,-50,6,39,49,-106,0
44827277581,-95,-44,-20,11,6,24,43,-9
44827277581,14,-99,-101,-10,-23,-11,-1,8
44827284445,-16,126,-104,-18,-32,-42,-28,-6
44827284445,-17,83,-74,-11,2,-9,-48,-31
44827300674,71,-76,89,40,38,16,90,28
44827300674,-94,-14,84,-14,11,30,89,-6
44827302282,-53,-3,127,9,14,39,-68,11
44827302282,38,8,67,-35,-69,-80,-84,-3
44827314514,-51,-88,-35,-7,0,-11,63,-3
44827314514,-33,29,-36,26,24,19,-71,4
44827323295,91,-107,-5,-15,-12,-8,87,22
44827323295,28,-9,-61,-12,8,17,-8,-1
44827337576,-72,44,-42,-5,-2,-7,-47,-7
44827337576,36,68,-30,12,-12,-27,30,3
44827344395,-13,-31,-28,-7,-21,-17,-52,-7
44827344395,-36,-18,24,26,39,21,63,-24
44827360114,3,127,-80,-4,9,37,-13,41
44827360114,63,42,-62,-3,-4,2,-18,-17
44827366919,33,-29,-42,-12,-33,-36,-42,1
44827366919,34,94,-59,-10,-27,-38,-24,-23
44827374469,-40,98,-55,2,8,5,54,-18
44827374469,-90,-40,41,14,39,42,53,27
44827383304,-55,98,54,1,0,10,-33,-17
44827383304,109,30,114,-12,-20,-23,19,4
44827397622,-48,-87,109,8,8,6,-31,-5
44827397622,8,-50,59,-21,-35,-40,-25,-7
44827404283,-87,-36,39,9,42,27,42,-8
44827404283,24,49,12,25,13,18,14,4
44827420095,10,83,-16,-35,-27,-16,-40,0
44827420095,44,54,-69,2,-14,-25,14,-8
44827426790,-17,121,-59,23,9,9,-19,7
44827426790,-85,72,-5,-10,22,16,109,16
44827434431,50,-3,-47,12,6,31,10,23
44827434431,96,63,-18,-18,-34,-26,-63,12
44827443290,75,90,4,-9,-9,-7,-61,-7
44827443290,-109,-19,8,19,46,42,-55,-3
44827457582,-54,14,17,-1,-13,-20,-2,-14
44827457582,-15,-57,26,-18,-30,-38,37,-15
44827464356,48,-60,-18,7,2,2,31,31
44827464356,41,-63,-3,5,11,15,4,-1
44827479873,-38,-39,12,-5,10,15,-6,3
44827479873,-25,-21,29,9,4,8,-36,-14
44827488341,-6,-61,37,-18,-19,-29,85,-4
44827488341,8,37,-21,7,-4,6,-8,8
44827494565,-18,-18,-4,-3,5,-3,-45,-12
44827494565,-43,51,-30,16,8,13,21,5
44827503317,-10,89,7,-8,10,13,-52,-7
44827503317,27,-46,-60,-19,-9,-5,93,26
44827517589,-16,58,-9,11,-7,-3,-72,-13
44827517589,93,-77,78,6,-10,-28,-5,-12
44827524331,-31,59,-2,-5,4,6,12,-18
44827524331,-61,1,21,5,8,15,-56,-22
44827540097,-49,53,-14,-5,-25,-28,8,18
44827540097,9,126,-45,-13,-14,-11,30,14
44827546910,-8,31,0,-2,7,3,-39,-3
44827546910,15,-43,-13,0,5,3,20,-2
44827563292,-28,-29,17,1,13,23,32,3
44827563292,-35,-61,4,-8,-7,3,-46,1
44827564922,47,-104,44,2,-24,-39,81,-7
44827564922,-2,43,2,3,14,19,-3,34
44827577620,20,-49,26,5,7,1,-55,-13
44827577620,11,19,-45,-7,0,-1,-8,1
44827584380,-29,-12,-27,-2,17,18,-84,-22
44827584380,-13,-53,44,5,-6,-18,91,-6
44827599990,41,6,-25,-12,-20,-14,-30,-6
44827599990,7,-44,8,15,19,15,37,22
44827606824,-39,-24,-45,7,11,18,-26,1
44827606824,-10,18,30,-5,-19,-17,-32,-10
44827623151,33,-38,13,-3,-3,-9,20,-15
44827623151,-42,7,-3,-3,5,8,37,6
44827624834,16,-11,15,-3,-2,-1,-29,-11
44827624834,-16,3,-26,8,20,23,-6,7
44827637600,4,28,39,-9,-16,-17,-45,-1
44827637600,2,5,16,-1,-8,-11,68,17
44827644497,5,-25,5,2,4,13,11,10
44827644497,22,-30,-38,-11,-6,-4,-62,-8
44827660787,19,16,-42,-7,-6,-17,21,-16
44827660787,-23,-7,-19,6,10,10,-43,-35
44827666844,-20,24,7,-6,-12,-10,2,0
44827666844,-4,37,-35,4,13,3,71,-14
44827683378,-16,2,26,14,44,23,-49,-7
44827683378,1,49,9,-19,2,-10,12,-12
44827684952,69,51,-38,1,-7,5,69,75
44827684952,-18,71,77,11,0,6,-58,13
44827697644,-5,17,-25,0,-33,0,31,-8
44827697644,-28,-49,-20,-3,-53,-31,-128,-25
44827704380,-9,-62,-24,0,-11,16,99,41
44827704380,28,-42,-42,-17,-19,17,-107,-27
44827720077,-7,-34,-35,-4,42,4,16,17
44827720077,-11,-3,-64,4,18,7,-39,-17
44827726917,28,-6,70,-16,-22,-69,-44,-18
44827726917,39,-22,-36,4,20,6,83,40
44827742571,-36,-29,40,-12,-4,18,-4,-6
44827742571,3,17,21,13,1,1,7,7
44827743330,-15,-14,-58,-7,-4,4,-3,-5
44827743330,-6,-26,24,-7,3,-13,-47,-22
44827758299,-13,-38,106,19,4,1,-7,13
44827758299,-28,-8,-35,14,8,21,127,25
44827764285,-32,-38,-12,-31,-21,-12,-103,-40
44827764285,22,62,-16,39,20,9,78,16
44827780946,-17,62,-97,9,9,4,-59,-23
44827780946,13,62,66,-30,-35,-45,-1,-32
44827786929,32,41,31,19,22,18,13,28
44827786929,10,-41,-45,-35,-22,11,57,28
44827802531,-4,-38,76,7,5,12,-11,-3
44827802531,-8,-54,-9,7,9,7,-42,-22
44827803368,-3,-10,-25,-14,-15,-36,-48,-33
44827803368,-3,-5,-9,4,-6,-17,-26,-5
44827818319,18,23,2,18,10,24,90,35
44827818319,-19,5,9,-6,12,12,-45,8
44827824400,-17,-3,59,-7,-20,-4,34,16
44827824400,46,-22,18,-4,9,-14,-64,-8
44827840793,-7,-31,-108,22,21,7,31,12
44827840793,11,-6,31,-16,0,0,5,6
44827846915,-16,9,19,18,14,21,-5,-10
44827846915,-24,7,36,-6,-15,-11,-21,-32
44827862573,-42,8,-42,-16,-15,-3,-3,-11
44827862573,81,10,-15,-5,6,-14,54,12
44827863379,3,8,-12,12,12,19,-16,3
44827863379,-14,4,-64,-10,-19,-24,-56,-30
44827878342,-18,-11,35,-4,6,7,11,7
44827878342,-29,1,44,2,-4,30,41,20
44827884376,42,7,-98,-4,0,-5,0,-10
44827884376,-18,-8,77,-2,3,-17,-58,-13
44827899477,0,13,35,18,1,1,70,-1
44827899477,-7,-3,-18,-5,3,14,-75,10
44827906749,-5,4,-11,-6,-9,-19,16,-17
44827906749,18,5,79,24,10,20,95,78
44827922437,20,2,-52,-21,-12,-3,-67,-19
44827922437,-11,-9,11,3,-2,-9,3,-9
44827923238,-37,-13,3,9,18,18,-31,-14
44827923238,14,40,-27,-20,-32,-41,-39,-36
44827946931,23,5,26,-9,1,-15,23,14
44827946931,13,-1,4,6,10,17,44,2
44827952461,-5,-12,-63,-2,0,0,-30,3
44827952461,-33,-9,24,8,3,9,7,-8
44827959398,8,14,-1,-12,-16,-12,-34,-17
44827959398,-9,-15,5,6,1,-11,-60,-23
44827966889,-2,-4,16,2,0,5,107,26
44827966889,31,1,-14,2,5,18,4,47
44827982364,-2,-8,-42,-19,-13,-7,-27,-10
44827982364,-23,3,66,23,5,5,-45,-35
44827989457,10,18,43,17,5,-4,34,16
44827989457,-3,21,-9,-27,-12,11,35,-10
44827998323,8,-17,-23,-2,9,-5,-22,-1
44827998323,-9,7,22,0,-5,-3,12,10
44828004339,-1,-3,42,-12,-8,-15,-39,-16
44828004339,-19,-11,-26,21,11,-6,-64,-21
44828019317,-15,22,55,14,3,3,58,20
44828019317,10,-40,-50,-24,-3,14,56,0
44828026932,19,16,-3,1,0,6,-22,21
44828026932,-4,-16,-18,-5,-1,1,-30,2
44828042575,3,3,-32,0,-5,-11,-41,-41
44828042575,15,-16,9,8,5,-6,6,17
44828043249,-43,14,-19,-10,-11,-8,33,-16
44828043249,11,-16,-47,-9,-4,0,-9,-8
44828058378,3,18,81,15,2,-6,-20,6
44828058378,10,15,-20,5,3,-5,19,15
44828064305,-4,-4,-54,-11,1,14,15,-2
44828064305,-49,-17,-66,-35,-21,-23,-24,-19
44828079406,31,26,93,29,19,17,21,26
44828079406,19,46,-88,50,7,4,-7,-4
44828086905,25,-35,-16,-20,-7,-18,-25,-5
44828086905,-68,9,-107,-23,-17,-4,7,-18
44828102896,37,-36,15,-43,-18,-16,36,5
44828102896,43,16,-7,-18,1,24,-3,18
44828109442,98,16,126,79,23,21,1,42
44828109442,16,-22,-41,5,7,-1,-26,-21
44828118341,-76,-53,-128,-107,-45,-31,5,-4
44828118341,31,58,98,86,49,18,6,0
44828124407,-41,-49,-126,-100,-30,-19,-19,-37
44828124407,53,107,75,47,39,30,43,58
44828139343,1,-11,18,-15,-8,-13,-24,-20
44828139343,-12,33,-21,18,2,8,6,12
44828146854,13,-18,-59,-22,-8,-11,-16,-34
44828146854,-37,78,-23,-45,-10,-14,7,-8
44828162685,40,4,58,45,9,9,15,23
44828162685,-11,7,-53,23,-3,0,-39,13
44828163270,-28,16,-22,-30,7,16,48,34
44828163270,-36,-1,25,82,13,2,-3,54
44828178312,15,-2,-128,-103,-26,-4,2,-12
44828178312,21,11,119,61,28,4,-5,-8
44828184340,-27,12,-39,8,6,-7,-42,-28
44828184340,-30,-31,110,-38,-16,-19,10,-20
44828199378,1,-81,38,89,42,48,-11,76
44828199378,54,-117,-10,-112,-42,-33,76,-15
44828206868,-9,57,75,12,1,7,-45,8
44828206868,22,-20,6,-18,-8,-5,-11,-29
44828222485,-85,44,-24,26,8,-18,-53,-72
44828222485,-7,18,-102,-85,-11,3,66,33
44828223267,98,46,76,52,7,22,29,67
44828223267,-12,-102,80,39,13,6,-14,-39
44828238322,32,74,-81,-23,4,-11,-8,-18
44828238322,-72,62,-128,-18,-19,-18,-3,-27
44828244520,-16,-53,72,4,-3,-4,-9,-15
44828244520,99,20,37,13,35,25,17,0
44828259517,37,96,7,-32,-44,-14,29,40
44828259517,68,-82,58,24,16,2,-96,-20
44828266919,-33,20,-3,4,-4,-15,7,54
44828266919,-89,20,-24,-10,-18,-22,5,-68
44828282005,18,-14,9,14,22,38,97,73
44828282005,-60,115,-42,20,9,33,-106,3
44828289383,35,-102,58,3,-12,-28,-13,-35
44828289383,64,101,-31,-2,-2,-11,-32,6
44828298321,-71,25,-84,-17,-13,-27,-8,-55
44828298321,-30,16,37,3,-5,1,49,58
44828304430,-30,-72,-23,2,34,46,15,-34
44828304430,40,-32,-17,-14,-25,-21,12,41
44828319498,38,97,13,49,10,3,-19,-41
44828319498,31,-59,-6,-39,-19,-23,-19,-30
44828326969,20,-7,-22,-9,-18,-29,-14,-9
44828326969,-66,-6,-33,-6,29,85,21,-21
44828341857,-33,22,22,20,12,12,71,48
44828341857,40,40,71,-16,-26,-23,-32,-27
44828349470,-85,127,-46,-22,-24,-55,-27,-29
44828349470,-4,48,16,8,-1,4,55,-44
44828358375,-54,-56,42,15,26,39,-85,-5
44828358375,-97,56,18,-4,8,4,68,41
44828364468,-95,-72,-13,9,8,26,-25,-50
44828364468,41,-119,63,28,17,-18,-39,23
44828379387,15,58,6,-9,-14,-9,-14,-8
44828379387,-35,31,-47,9,3,-14,17,-16
44828387100,-43,27,-52,-26,-11,-9,-74,-38
44828387100,0,4,-48,17,14,8,100,65
44828401948,8,-75,-55,-21,4,24,-16,22
44828401948,-31,-14,-38,-1,3,3,-12,35
44828409453,50,40,-1,1,-3,-9,18,-17
44828409453,-5,13,-33,-18,-23,-17,-39,-52
44828418370,-2,105,15,-2,3,8,72,45
44828418370,70,-125,34,21,10,44,-6,16
44828424455,51,121,-33,-24,-29,-39,11,6
44828424455,-84,107,41,3,21,21,-3,9
44828439330,57,87,-15,-20,-57,-49,-33,-56
44828439330,-42,7,-67,-14,5,-35,-42,-19
44828446958,5,-38,101,15,32,45,102,39
44828446958,-83,8,-83,-1,4,37,19,-26
44828462031,58,70,89,19,3,49,7,50
44828462031,3,-43,-41,-33,-29,-49,-48,-22
44828469446,8,42,78,39,15,-17,17,-5
44828469446,-17,79,-128,-28,1,0,20,17
44828484994,-34,-41,127,48,30,24,-15,-23
44828484994,-90,-79,-6,-25,-8,0,11,12
44828485777,6,54,-34,54,15,13,-33,35
44828485777,-20,-81,53,16,-8,-30,-28,-12
44828499414,5,-65,-44,-17,-5,-22,15,-16
44828499414,4,-5,-41,-26,-15,3,-24,-15
44828506849,-44,-1,-6,-6,21,23,33,-28
44828506849,-38,3,-32,-27,-15,1,-4,27
44828521979,86,-128,27,-17,-57,-77,-44,-36
44828521979,-42,127,49,21,33,23,6,0
44828529354,-14,83,-65,-29,-13,5,12,1
44828529354,-4,46,40,6,23,23,-4,13
44828545095,-128,73,-51,4,12,24,-5,-9
44828545095,106,-49,-22,-22,-63,-64,20,-10
44828545759,81,62,-20,21,-9,-33,-15,21
44828545759,14,62,2,-14,-2,-4,-24,-3
44828559477,-91,79,-31,18,53,33,3,-13
44828559477,-128,109,44,26,52,68,53,-18
44828566860,-43,-115,30,-25,-105,-87,19,3
44828566860,39,121,17,0,23,-16,-46,26
44828581839,-14,84,7,-7,6,-1,9,-3
44828581839,-7,-28,0,-14,15,16,-45,-30
44828589337,-25,76,-14,18,20,36,74,23
44828589337,66,-117,12,-3,-38,-27,-11,-22
44828606426,9,-17,-29,-10,2,-7,6,1
44828606426,8,-4,10,6,4,13,-34,17
44828607368,-73,1,-64,-16,6,-2,-48,-70
44828607368,78,-128,93,2,-25,-29,28,29
44828619408,-12,34,-61,-5,18,27,-16,9
44828619408,-63,25,-9,-1,-8,6,0,-12
44828627012,86,96,-58,-7,-45,-29,-22,18
44828627012,-89,-35,39,7,13,-8,-1,-13
44828642012,-41,6,-88,-21,18,17,3,-10
44828642012,-2,84,7,-17,-39,-35,7,7
44828649433,63,90,-19,0,3,-12,-22,9
44828649433,-23,10,-42,13,18,30,-1,-4
44828665144,-64,113,-76,-9,18,25,26,10
44828665144,72,-57,50,-36,-72,-71,-17,-8
44828665808,-36,55,58,21,58,39,40,14
44828665808,-22,127,21,-10,3,6,-21,15
44828679487,-29,-73,113,25,0,-8,-9,-27
44828679487,73,107,21,-4,3,-1,35,19
44828686997,3,-54,16,-4,-3,1,-101,-41
44828686997,-12,11,-8,-6,2,7,76,26
44828710144,-40,-11,22,22,7,14,-43,25
44828710144,-43,-60,-67,-2,-3,-6,-12,-3
44828710817,-36,72,1,10,2,11,13,13
44828710817,57,26,-3,6,6,2,-21,0
44828725071,35,79,-13,-10,-34,-33,0,-28
44828725071,-1,53,-35,8,7,-4,-27,-28
44828725949,-23,70,11,-6,56,57,34,53
44828725949,-55,-82,-81,-32,-59,-22,-29,-18
44828739369,127,-128,37,-1,-13,-32,16,2
44828739369,-20,105,-12,18,28,31,4,1
44828746930,44,-100,9,-17,-40,-46,-3,-24
44828746930,33,103,39,44,42,20,7,-4
44828762026,-39,83,-33,-4,19,34,-1,23
44828762026,-9,-36,8,-4,-54,-43,12,-2
44828769439,7,-29,33,13,46,31,0,-6
44828769439,-37,67,-3,3,-7,-12,-23,-17
44828784942,106,36,-5,7,3,4,32,37
44828784942,-91,-9,-2,4,30,41,33,-35
44828792688,-48,-78,8,-11,-36,-23,-31,25
44828792688,13,5,42,-7,2,-1,-13,-9
44828799523,-77,-39,-54,14,14,16,-7,-25
44828799523,18,-11,27,19,8,7,11,39
44828806936,-4,-9,35,-38,-48,-34,-97,-54
44828806936,39,-77,1,1,41,11,109,83
44828821882,-51,45,-30,8,-4,33,-46,-14
44828821882,99,46,26,-21,-73,-69,-20,-10
44828829370,-24,127,16,15,50,32,1,-14
44828829370,-73,93,-14,-10,-13,-11,7,-24
44828845168,19,51,51,14,13,-1,29,13
44828845168,-36,-23,-30,21,46,53,7,15
44828845922,37,-61,-10,-17,-25,-15,21,21
44828845922,124,10,-1,-23,-39,-37,-32,-14
44828859514,50,-70,12,26,6,-25,15,-6
44828859514,-30,-32,22,6,30,25,-83,-25
44828867022,-62,-2,-56,5,8,22,110,22
44828867022,38,-11,19,-1,-2,16,-25,15
44828881875,55,-54,-21,-39,-14,-35,-37,-16
44828881875,-68,7,11,49,29,20,9,0
44828889364,-55,42,-23,-13,-36,2,13,25
44828889364,55,-52,-36,-15,-28,-42,-52,-1
44828905030,-52,49,33,6,17,1,43,-10
44828905030,-27,2,-56,6,32,26,12,-5
44828905837,-20,83,-14,-7,25,32,-11,-1
44828905837,-32,-123,21,-12,-58,-49,8,-35
44828919453,24,57,28,-12,-12,-26,-40,1
44828919453,-37,67,7,-1,41,21,36,16
44828927044,-72,-3,-33,13,11,25,-55,-22
44828927044,32,1,-25,0,-13,-11,45,13
44828942007,37,-49,8,5,7,9,-6,-4
44828942007,-5,97,-6,-20,-37,-26,-9,15
44828949473,75,-28,31,-1,20,-10,-42,-10
44828949473,-66,102,-11,4,11,10,43,-13
44828964998,-28,66,47,10,-24,-2,-6,26
44828964998,0,-15,-42,-3,35,31,-5,3
44828965956,-84,76,-8,-11,1,26,24,18
44828965956,9,-71,48,-16,-83,-73,-75,-25
44828979571,15,92,1,-3,28,-29,11,-6
44828979571,-7,40,13,-2,8,3,20,0
44828986951,-25,82,28,6,23,19,9,-4
44828986951,-122,127,-36,20,54,79,13,9
44829001893,34,-18,-33,-33,-73,-41,-20,-17
44829001893,60,-26,9,-21,-48,-55,0,16
44829009334,40,-128,10,21,32,1,6,-17
44829009334,-88,127,-45,18,57,64,-6,10
44829025021,31,5,28,-4,-45,-26,-19,-11
44829025021,113,44,50,-6,-21,-34,63,0
44829025791,45,67,-17,4,4,-5,9,26
44829025791,-2,-121,16,7,31,25,-17,-12
44829039331,-127,36,-51,-15,9,16,-2,14
44829039331,51,8,41,-9,-43,-21,-1,-19
44829046951,-33,-17,-24,18,22,11,-10,23
44829046951,13,-41,0,-6,-2,-2,-1,3
44829061981,-44,-62,21,0,5,9,-4,-10
44829061981,-124,-1,-25,6,36,32,-24,-17
44829069384,-57,90,0,-13,-40,-24,86,17
44829069384,97,93,-12,-20,-64,-62,-51,24
44829085051,-27,-19,22,28,47,9,3,-12
44829085051,-87,-15,-4,-4,15,20,2,9
44829085793,13,-115,38,-6,-4,2,-18,-36
44829085793,-82,19,-24,7,23,31,18,-10
44829099406,2,100,5,-5,-50,-21,15,4
44829099406,45,-100,22,-7,13,-21,-11,-11
44829106815,-75,101,-27,22,59,47,4,9
44829106815,89,-105,28,5,-75,-53,-15,1
44829121910,94,53,7,1,7,-26,-11,4
44829121910,-72,61,-47,25,60,62,6,-1
44829129397,-21,-65,8,-12,-16,4,-5,1
44829129397,37,127,-4,-23,-14,-22,-13,-4
44829145179,-128,40,2,4,37,44,21,-15
44829145179,35,-101,0,1,-74,-46,-17,-1
44829145971,60,112,-32,-12,-21,-51,-12,-6
44829145971,-91,75,12,4,64,52,15,-7
44829160855,-58,30,-24,23,-12,23,10,7
44829160855,22,0,-54,-37,-25,-26,-4,-2
44829167023,57,42,44,30,20,5,-7,5
44829167023,55,63,21,-18,-21,-29,-21,-23
44829182067,-3,-90,-3,14,4,7,22,29
44829182067,80,60,27,8,22,19,16,28
44829189386,-55,-79,-56,-14,-6,-9,-16,-22
44829189386,38,100,25,-14,-22,-13,-13,15
44829205091,72,-33,5,-41,-31,-40,0,-20
44829205091,-50,102,-9,-12,3,13,-26,16
44829205824,-43,-84,5,39,22,22,29,-7
44829205824,-58,127,-42,24,53,52,-5,-19
44829219514,-78,-93,11,-21,-45,-28,-14,-20
44829219514,104,120,10,6,-18,-51,-15,50
44829235287,-70,13,-20,21,37,38,8,-18
44829235287,-47,-45,-21,-8,3,13,7,2
44829243328,127,28,-20,-20,-38,-40,-20,-19
44829243328,-56,12,21,28,62,47,22,-30
44829249304,-64,57,-97,-10,22,45,4,8
44829249304,111,-121,51,-10,-85,-75,-12,16
44829264495,-15,123,0,5,17,-24,-8,4
44829264495,-69,-27,-19,28,40,38,20,1
44829272561,-32,82,-2,-40,-10,20,-7,-5
44829272561,-117,50,0,8,33,51,15,12
44829279329,95,-58,-17,-36,-72,-68,-20,16
44829279329,98,67,34,8,-24,-55,-13,-7
44829286923,69,97,-4,-32,-37,-21,-5,-2
44829286923,-76,102,6,64,75,50,20,-3
44829303391,-116,36,-13,6,38,63,14,0
44829303391,41,-10,5,-35,-52,-31,0,-15
44829317822,84,12,18,-12,-26,-47,-21,28
44829317822,68,-14,12,-4,35,28,9,-20
44829324377,-60,-71,6,26,28,40,8,9
44829324377,1,63,-4,-6,-42,-34,-9,-31
44829332564,62,127,14,-8,-34,-38,-4,18
44829332564,-77,-121,-9,-3,10,6,-1,-14
44829339372,40,-78,37,5,41,31,24,-20
44829339372,-27,110,-45,-17,13,41,9,8
44829346998,17,-128,67,-7,-59,-55,-19,-6
44829346998,69,-6,-72,4,-5,-25,-3,18
44829361836,-30,14,44,1,0,-5,-17,-25
44829361836,-6,-53,32,3,9,7,59,2
44829370185,10,-6,-3,-12,18,23,12,30
44829370185,-46,14,17,-11,-7,3,-26,-18
44829393356,-78,44,-25,1,4,8,12,4
44829393356,-90,-103,36,9,-8,-11,-23,-21
44829394157,66,106,-8,-4,-20,-32,50,-44
44829394157,41,91,-65,-6,4,12,15,48
44829407553,-54,22,-34,5,19,25,-50,-11
44829407553,-9,83,-47,8,3,11,16,-13
44829408568,42,-24,-36,-9,-30,-39,-37,6
44829408568,-10,-51,-1,4,8,-17,-3,-27
44829421931,6,-13,-25,3,29,29,17,17
44829421931,-115,-76,30,27,54,67,-28,27
44829430056,-16,51,66,7,-35,-18,18,7
44829430056,108,-73,101,-24,-68,-83,-31,-27
44829444575,-19,127,71,12,44,27,11,31
44829444575,-37,-5,63,1,1,-2,-8,-8
44829452763,-59,-55,-7,10,52,48,-91,-22
44829452763,-109,77,-24,9,7,26,116,21
44829467551,127,103,-69,-37,-85,-75,-65,-7
44829467551,3,-105,-33,1,6,-11,-9,-22
44829468313,-70,81,-41,14,37,43,-27,12
44829468313,62,4,17,-16,-11,-6,-43,-38
44829481835,88,-128,31,24,9,-5,83,38
44829481835,27,127,-104,-5,-1,21,27,18
44829490020,-13,46,-45,-13,-10,-17,-35,2
44829490020,8,-30,-70,2,31,30,47,-10
44829513283,-106,127,-55,0,15,29,-20,-13
44829513283,50,-59,28,-29,-98,-101,-58,-6
44829514118,39,69,61,14,17,-10,47,1
44829514118,-74,91,32,5,13,12,-32,4
44829527602,-81,-25,12,5,36,36,-17,-14
44829527602,-111,-7,22,17,45,60,55,6
44829528444,89,19,51,-23,-79,-61,-18,10
44829528444,13,46,12,1,-12,-32,-31,-3
44829541873,15,44,29,12,26,21,7,17
44829541873,7,72,42,-5,2,14,-12,-6
44829550245,-4,-84,-14,4,-1,-2,15,-10
44829550245,-5,18,-27,-2,-13,-23,0,-1
44829564434,82,-88,-8,4,2,8,39,21
44829564434,-22,29,-42,1,20,22,-29,-8
44829572603,36,-109,41,0,-1,-1,18,14
44829572603,44,-19,-9,-8,-6,-5,15,0
44829587760,-34,63,9,-6,-27,-36,-84,16
44829587760,68,51,-15,-7,-3,-4,97,-3
44829588376,-86,-26,-37,9,56,73,-26,2
44829588376,-38,-79,56,-2,-37,-31,-61,-17
44829602038,64,51,-6,-19,-56,-71,-17,-28
44829602038,-19,-1,-5,15,31,13,-9,-15
44829610168,-46,-76,15,12,11,2,-110,-3
44829610168,-37,-14,-8,0,24,41,127,24
44829624454,-34,3,-66,-5,-1,31,-87,4
44829624454,100,-34,18,-19,-39,-51,-47,7
44829632691,23,-91,17,3,3,-13,13,-29
44829632691,-24,24,-5,26,26,27,-25,9
44829647712,-56,53,-6,-4,12,10,54,-6
44829647712,-3,58,-41,-18,-10,-1,-16,-3
44829648454,45,77,-2,-10,-33,-35,25,5
44829648454,25,4,-5,0,15,9,-7,18
44829661997,-50,-1,2,12,18,24,23,-8
44829661997,-46,13,-7,-1,0,4,-21,2
44829670209,12,43,29,-5,-20,-29,-10,-10
44829670209,-15,-8,0,9,15,14,43,-2
44829684518,-36,-15,-18,0,10,23,-1,-10
44829684518,37,40,22,-17,-19,-21,-26,4
44829692719,7,-23,-18,8,5,2,11,-6
44829692719,61,-9,-12,-9,-12,-11,9,49
44829707381,-2,-128,14,5,9,5,-10,-3
44829707381,-5,6,10,1,-13,-16,-13,0
44829715104,-24,18,-31,2,9,13,67,-2
44829715104,-51,-17,-23,-1,15,32,-27,-4
44829721874,48,64,22,-18,-44,-52,30,7
44829721874,10,-22,-7,2,7,2,-29,-2
44829729996,-4,-19,-8,-4,-1,1,-6,-12
44829729996,-19,-41,14,7,8,1,-17,-7
44829744532,8,-27,-5,4,7,12,70,4
44829744532,-18,-13,-29,2,10,19,-32,-2
44829752582,15,14,-6,-7,-7,-4,13,15
44829752582,15,0,-29,-2,-12,-20,-19,-15
44829767719,-14,-48,-12,3,6,-6,-41,-20
44829767719,4,-2,7,8,8,7,29,1
44829768411,-14,48,-6,-8,-3,6,37,-14
44829768411,-2,83,15,-3,-1,-3,-44,-13
44829781914,17,33,-11,-2,2,-10,-2,-8
44829781914,-27,11,-5,6,16,11,33,-5
44829790107,29,24,-23,-8,-11,-5,-2,16
44829790107,12,20,1,-6,-19,-13,-31,-9
44829804552,2,22,-7,2,-5,0,9,2
44829804552,-27,9,22,9,7,20,7,29
44829812747,-39,41,-8,7,-3,7,-15,9
44829812747,26,19,4,-14,-22,-30,-1,-19
44829827707,-14,-30,-3,8,16,21,23,8
44829827707,15,-61,23,-4,-2,2,-7,17
44829828340,3,-64,11,1,-5,-13,-13,-24
44829828340,-7,-56,20,4,9,1,2,-10
44829842054,-16,-11,20,2,4,7,13,4
44829842054,5,-19,-35,-5,-5,-3,34,16
44829850194,21,4,-20,-10,-9,-11,-11,5
44829850194,5,11,12,4,13,9,-51,-19
44829864519,-1,-52,12,-3,-10,-16,-11,-6
44829864519,2,15,-4,3,2,12,81,24
44829872358,-35,-3,5,10,17,28,-37,-1
44829872358,11,23,-22,-11,-23,-28,3,-8
44829887776,53,30,4,-1,-2,-7,-37,30
44829887776,-33,-16,4,10,12,6,2,-27
44829888429,25,6,-13,-7,-10,-1,34,21
44829888429,-6,-10,-3,0,4,4,-25,-8
44829901981,-4,9,3,-1,-5,-6,5,-2
44829901981,-28,-1,6,2,3,5,1,-4
44829910110,16,22,-10,-4,-8,-6,-10,2
44829910110,2,-8,-7,1,2,4,0,10
44829924583,-12,12,-22,-6,-1,-3,2,-16
44829924583,10,-1,-6,-5,-4,-7,-19,-3
44829932784,-19,-22,9,1,9,7,2,-16
44829932784,-14,-4,-6,1,5,13,9,26
44829947580,5,2,10,1,0,-4,3,-2
44829947580,15,14,7,-4,-7,-16,-13,-17
44829948350,3,-1,0,4,4,1,-6,14
44829948350,-15,6,-10,2,4,13,-2,-11
44829961956,-15,18,-13,-4,-8,-12,-18,-22
44829961956,15,-2,-3,2,-3,-7,-6,8
44829970242,-4,-54,5,-1,0,-1,18,1
44829970242,-29,-9,0,2,3,13,8,3
44829984577,9,4,-9,-9,-9,-5,-9,-8
44829984577,2,-2,12,-2,-6,-12,-10,-1
44829992808,-11,4,-4,5,9,10,6,-6
44829992808,-17,-18,7,9,14,23,23,26
44830006917,28,20,10,-22,-39,-41,-11,-42
44830006917,42,13,-4,4,10,2,3,15
44830015898,-7,-5,0,7,13,12,0,39
44830015898,-2,-3,16,-4,-3,-8,3,-16
44830021882,-7,-3,-11,10,18,37,21,30
44830021882,3,18,-7,-12,-31,-10,-15,-3
44830037092,53,31,23,-10,-9,-35,-7,-22
44830037092,-27,-13,-4,12,12,7,4,8
44830044552,8,-2,-3,2,7,1,1,-7
44830044552,-8,-8,-22,1,5,7,-19,-13
44830053417,-29,-12,18,5,6,20,28,2
44830053417,17,43,-6,-16,-29,-32,-28,2
44830067119,-51,-4,-8,13,24,25,11,16
44830067119,20,28,-18,-10,-17,-25,0,-5
44830075888,-19,-6,-21,2,3,2,-20,-18
44830075888,-16,-37,4,-3,2,5,-7,-23
44830082012,17,-24,-4,0,2,0,-21,-10
44830082012,-52,-38,15,8,7,21,-4,-3
44830090922,71,19,18,-28,-27,-27,81,-3
44830090922,-5,-16,-13,9,16,10,-33,-16
44830104606,-4,-11,23,-3,-4,-8,4,5
44830104606,-8,-3,-1,0,6,5,-39,-14
44830113452,-25,-1,-7,3,-2,-9,-21,-6
44830113452,15,11,1,-2,1,14,75,39
44830126954,-10,8,-14,-5,-7,-12,-75,-23
44830126954,-1,20,20,1,1,3,88,2
44830135934,29,-19,-12,4,-1,4,-50,18
44830135934,15,15,2,-7,-6,-10,-8,5
44830142062,-8,-5,3,4,3,4,3,-3
44830142062,-36,-9,6,-1,1,-7,-48,-15
44830151070,-10,11,-15,5,-5,-15,6,-10
44830151070,-16,-3,6,10,12,15,77,18
